-0.1450000000
-0.1600000000
-0.1500000000
-0.1500000000
-0.1450000000
-0.1500000000
-0.1550000000
-0.1600000000
-0.1550000000
-0.1350000000
-0.1300000000
-0.1300000000
-0.1400000000
-0.1400000000
-0.1400000000
-0.1300000000
-0.1100000000
-0.1150000000
-0.1300000000
-0.1300000000
-0.1250000000
-0.1150000000
-0.1150000000
-0.1100000000
-0.1150000000
-0.1350000000
-0.1450000000
-0.1400000000
-0.1250000000
-0.1300000000
-0.1450000000
-0.1550000000
-0.1550000000
-0.1250000000
-0.1100000000
-0.1050000000
-0.1450000000
-0.1600000000
-0.1550000000
-0.1400000000
-0.1300000000
-0.1250000000
-0.1250000000
-0.1150000000
-0.1050000000
-0.1050000000
-0.1050000000
-0.1150000000
-0.1050000000
-0.1000000000
-0.0950000000
-0.1050000000
-0.1250000000
-0.1250000000
-0.1150000000
-0.1100000000
-0.1150000000
-0.1300000000
-0.1350000000
-0.1350000000
-0.1300000000
-0.1250000000
-0.1250000000
-0.1250000000
-0.1150000000
-0.1300000000
-0.1300000000
-0.1200000000
-0.1250000000
-0.1300000000
-0.1250000000
-0.1250000000
-0.1400000000
-0.1500000000
-0.1550000000
-0.1400000000
-0.1400000000
-0.1550000000
-0.1600000000
-0.1500000000
-0.1400000000
-0.1500000000
-0.1400000000
-0.1350000000
-0.1550000000
-0.1550000000
-0.1550000000
-0.1650000000
-0.1750000000
-0.1850000000
-0.1900000000
-0.1850000000
-0.1800000000
-0.1850000000
-0.1850000000
-0.1950000000
-0.1950000000
-0.1800000000
-0.1900000000
-0.1850000000
-0.1700000000
-0.1700000000
-0.1900000000
-0.2150000000
-0.2150000000
-0.2000000000
-0.1850000000
-0.1900000000
-0.1950000000
-0.2150000000
-0.2350000000
-0.2200000000
-0.2150000000
-0.2100000000
-0.2200000000
-0.2300000000
-0.2450000000
-0.2550000000
-0.2500000000
-0.2350000000
-0.2150000000
-0.2100000000
-0.2050000000
-0.2100000000
-0.2400000000
-0.2600000000
-0.2750000000
-0.2700000000
-0.2700000000
-0.2800000000
-0.2750000000
-0.2600000000
-0.2550000000
-0.2800000000
-0.2800000000
-0.2900000000
-0.3100000000
-0.3100000000
-0.3100000000
-0.3050000000
-0.3000000000
-0.2950000000
-0.2900000000
-0.2950000000
-0.2700000000
-0.2800000000
-0.3000000000
-0.3200000000
-0.3250000000
-0.3150000000
-0.3100000000
-0.3150000000
-0.3350000000
-0.3600000000
-0.3650000000
-0.3600000000
-0.3500000000
-0.3650000000
-0.3750000000
-0.3800000000
-0.3850000000
-0.3950000000
-0.4050000000
-0.3950000000
-0.3900000000
-0.3950000000
-0.3950000000
-0.3950000000
-0.4000000000
-0.3950000000
-0.3950000000
-0.3950000000
-0.3850000000
-0.3950000000
-0.4000000000
-0.4050000000
-0.4100000000
-0.4150000000
-0.4100000000
-0.4150000000
-0.4150000000
-0.4350000000
-0.4500000000
-0.4700000000
-0.4800000000
-0.4700000000
-0.4550000000
-0.4550000000
-0.4550000000
-0.4650000000
-0.4550000000
-0.4350000000
-0.4250000000
-0.4600000000
-0.4850000000
-0.5000000000
-0.5050000000
-0.5000000000
-0.4850000000
-0.4850000000
-0.5000000000
-0.5200000000
-0.5300000000
-0.5350000000
-0.5400000000
-0.5350000000
-0.5350000000
-0.5350000000
-0.5250000000
-0.5250000000
-0.5250000000
-0.5300000000
-0.5300000000
-0.5450000000
-0.5600000000
-0.5600000000
-0.5600000000
-0.5550000000
-0.5550000000
-0.5700000000
-0.5800000000
-0.5850000000
-0.5750000000
-0.5800000000
-0.5900000000
-0.5900000000
-0.5900000000
-0.5800000000
-0.5600000000
-0.6050000000
-0.6250000000
-0.6150000000
-0.6000000000
-0.5950000000
-0.5950000000
-0.6150000000
-0.6150000000
-0.6100000000
-0.6250000000
-0.6050000000
-0.5950000000
-0.6050000000
-0.6150000000
-0.6300000000
-0.6500000000
-0.6300000000
-0.6250000000
-0.6400000000
-0.6850000000
-0.6900000000
-0.6750000000
-0.6850000000
-0.6350000000
-0.6400000000
-0.6650000000
-0.6650000000
-0.6550000000
-0.6350000000
-0.6400000000
-0.6500000000
-0.6550000000
-0.6550000000
-0.6400000000
-0.6400000000
-0.6600000000
-0.6650000000
-0.6700000000
-0.6600000000
-0.6650000000
-0.6750000000
-0.6850000000
-0.6850000000
-0.6850000000
-0.6900000000
-0.6850000000
-0.6800000000
-0.6850000000
-0.6950000000
-0.7150000000
-0.7100000000
-0.6850000000
-0.6800000000
-0.6800000000
-0.6850000000
-0.6700000000
-0.6650000000
-0.6700000000
-0.6650000000
-0.6900000000
-0.6900000000
-0.6900000000
-0.6800000000
-0.6800000000
-0.6950000000
-0.7150000000
-0.7200000000
-0.7200000000
-0.7250000000
-0.7300000000
-0.7200000000
-0.7100000000
-0.7050000000
-0.7000000000
-0.7100000000
-0.7000000000
-0.6900000000
-0.6850000000
-0.7100000000
-0.7150000000
-0.7200000000
-0.7150000000
-0.7100000000
-0.7100000000
-0.7150000000
-0.7000000000
-0.6950000000
-0.7050000000
-0.7450000000
-0.7550000000
-0.7400000000
-0.7100000000
-0.7000000000
-0.7050000000
-0.6950000000
-0.7500000000
-0.7600000000
-0.7700000000
-0.7500000000
-0.7400000000
-0.7450000000
-0.7550000000
-0.7700000000
-0.7800000000
-0.7750000000
-0.7550000000
-0.7550000000
-0.7750000000
-0.7750000000
-0.7800000000
-0.7750000000
-0.7700000000
-0.7600000000
-0.7500000000
-0.7500000000
-0.7550000000
-0.7600000000
-0.7550000000
-0.7500000000
-0.7500000000
-0.7600000000
-0.7600000000
-0.7600000000
-0.7550000000
-0.7600000000
-0.7650000000
-0.7600000000
-0.7650000000
-0.7750000000
-0.7850000000
-0.7850000000
-0.8000000000
-0.8000000000
-0.7900000000
-0.7900000000
-0.8000000000
-0.8150000000
-0.8150000000
-0.8000000000
-0.7950000000
-0.8100000000
-0.8150000000
-0.8150000000
-0.8050000000
-0.7950000000
-0.7850000000
-0.7950000000
-0.8050000000
-0.8150000000
-0.8250000000
-0.8100000000
-0.8150000000
-0.8250000000
-0.8100000000
-0.8050000000
-0.8050000000
-0.8100000000
-0.8150000000
-0.8150000000
-0.8150000000
-0.8150000000
-0.8150000000
-0.8200000000
-0.8150000000
-0.8100000000
-0.8150000000
-0.8150000000
-0.8250000000
-0.8300000000
-0.8400000000
-0.8300000000
-0.8250000000
-0.8250000000
-0.8150000000
-0.8050000000
-0.8000000000
-0.8100000000
-0.8200000000
-0.8250000000
-0.8150000000
-0.8200000000
-0.8250000000
-0.8250000000
-0.8200000000
-0.8250000000
-0.8350000000
-0.8250000000
-0.8350000000
-0.8450000000
-0.8450000000
-0.8400000000
-0.8300000000
-0.8050000000
-0.8050000000
-0.8100000000
-0.8200000000
-0.8350000000
-0.8450000000
-0.8500000000
-0.8500000000
-0.8400000000
-0.8300000000
-0.8300000000
-0.8350000000
-0.8450000000
-0.8350000000
-0.8350000000
-0.8300000000
-0.8300000000
-0.8350000000
-0.8350000000
-0.8200000000
-0.7950000000
-0.7950000000
-0.8050000000
-0.8250000000
-0.8400000000
-0.8500000000
-0.8500000000
-0.8250000000
-0.8150000000
-0.8150000000
-0.8200000000
-0.8250000000
-0.8200000000
-0.8200000000
-0.8200000000
-0.8150000000
-0.7950000000
-0.7950000000
-0.8050000000
-0.8200000000
-0.8050000000
-0.8000000000
-0.8000000000
-0.8000000000
-0.7900000000
-0.7800000000
-0.7800000000
-0.7850000000
-0.7900000000
-0.7900000000
-0.8100000000
-0.8200000000
-0.8100000000
-0.7900000000
-0.7750000000
-0.7650000000
-0.7650000000
-0.7800000000
-0.7950000000
-0.8050000000
-0.8050000000
-0.8050000000
-0.7950000000
-0.7750000000
-0.7600000000
-0.7450000000
-0.7500000000
-0.7650000000
-0.7800000000
-0.7750000000
-0.7650000000
-0.7600000000
-0.7550000000
-0.7700000000
-0.7750000000
-0.7650000000
-0.7600000000
-0.7550000000
-0.7550000000
-0.7550000000
-0.7500000000
-0.7450000000
-0.7450000000
-0.7450000000
-0.7450000000
-0.7350000000
-0.7400000000
-0.7700000000
-0.7950000000
-0.7550000000
-0.7500000000
-0.7550000000
-0.7350000000
-0.7250000000
-0.7150000000
-0.7050000000
-0.7050000000
-0.7000000000
-0.7000000000
-0.7200000000
-0.7400000000
-0.7550000000
-0.7500000000
-0.7350000000
-0.7250000000
-0.7250000000
-0.7300000000
-0.7300000000
-0.7150000000
-0.7150000000
-0.7100000000
-0.7200000000
-0.7400000000
-0.7400000000
-0.7300000000
-0.7300000000
-0.7350000000
-0.7300000000
-0.7300000000
-0.7200000000
-0.7050000000
-0.6900000000
-0.6950000000
-0.7000000000
-0.7050000000
-0.6850000000
-0.6850000000
-0.6950000000
-0.7050000000
-0.7000000000
-0.6850000000
-0.6800000000
-0.6800000000
-0.6750000000
-0.6650000000
-0.6850000000
-0.6900000000
-0.6850000000
-0.6850000000
-0.6950000000
-0.7050000000
-0.7150000000
-0.7000000000
-0.6750000000
-0.6450000000
-0.6500000000
-0.6700000000
-0.6900000000
-0.7000000000
-0.6850000000
-0.6550000000
-0.6250000000
-0.6250000000
-0.6350000000
-0.6350000000
-0.6400000000
-0.6500000000
-0.6450000000
-0.6400000000
-0.6350000000
-0.6250000000
-0.6300000000
-0.6350000000
-0.6350000000
-0.6200000000
-0.6100000000
-0.6050000000
-0.6150000000
-0.6150000000
-0.6050000000
-0.5950000000
-0.6000000000
-0.6100000000
-0.6200000000
-0.6100000000
-0.6100000000
-0.6200000000
-0.6150000000
-0.5900000000
-0.5800000000
-0.5700000000
-0.5900000000
-0.6000000000
-0.5950000000
-0.5950000000
-0.6050000000
-0.6150000000
-0.6150000000
-0.6150000000
-0.6100000000
-0.6200000000
-0.5850000000
-0.5900000000
-0.6000000000
-0.5800000000
-0.5700000000
-0.5800000000
-0.5750000000
-0.5800000000
-0.5950000000
-0.5850000000
-0.5800000000
-0.5800000000
-0.5700000000
-0.5650000000
-0.5600000000
-0.5650000000
-0.5600000000
-0.5500000000
-0.5500000000
-0.5700000000
-0.5750000000
-0.5650000000
-0.5500000000
-0.5450000000
-0.5550000000
-0.5650000000
-0.5650000000
-0.5700000000
-0.5700000000
-0.5700000000
-0.5700000000
-0.5700000000
-0.5550000000
-0.5500000000
-0.5550000000
-0.5550000000
-0.5550000000
-0.5500000000
-0.5400000000
-0.5400000000
-0.5400000000
-0.5550000000
-0.5400000000
-0.5400000000
-0.5450000000
-0.5550000000
-0.5450000000
-0.5350000000
-0.5400000000
-0.5450000000
-0.5600000000
-0.5800000000
-0.5500000000
-0.5300000000
-0.5150000000
-0.5200000000
-0.5350000000
-0.5450000000
-0.5450000000
-0.5300000000
-0.5200000000
-0.5100000000
-0.5000000000
-0.5150000000
-0.5450000000
-0.5450000000
-0.5350000000
-0.5200000000
-0.4950000000
-0.4950000000
-0.5000000000
-0.5000000000
-0.5200000000
-0.5300000000
-0.5400000000
-0.5250000000
-0.4850000000
-0.4550000000
-0.4800000000
-0.4900000000
-0.4750000000
-0.4400000000
-0.4300000000
-0.4350000000
-0.4650000000
-0.4850000000
-0.4950000000
-0.5050000000
-0.5100000000
-0.5300000000
-0.5500000000
-0.5700000000
-0.5750000000
-0.5750000000
-0.5550000000
-0.5300000000
-0.5100000000
-0.5000000000
-0.5150000000
-0.5150000000
-0.4900000000
-0.4450000000
-0.4500000000
-0.4700000000
-0.5000000000
-0.5100000000
-0.5100000000
-0.5150000000
-0.4850000000
-0.5000000000
-0.5350000000
-0.5550000000
-0.5450000000
-0.5150000000
-0.5000000000
-0.4850000000
-0.4750000000
-0.4750000000
-0.4650000000
-0.4650000000
-0.4850000000
-0.4850000000
-0.4800000000
-0.4550000000
-0.4550000000
-0.4500000000
-0.4500000000
-0.4500000000
-0.4600000000
-0.4700000000
-0.4700000000
-0.4600000000
-0.4550000000
-0.4450000000
-0.4250000000
-0.4250000000
-0.4450000000
-0.4650000000
-0.4750000000
-0.4800000000
-0.4850000000
-0.4700000000
-0.4500000000
-0.4500000000
-0.4600000000
-0.4650000000
-0.4600000000
-0.4450000000
-0.4300000000
-0.4150000000
-0.3950000000
-0.3850000000
-0.3800000000
-0.3800000000
-0.3800000000
-0.3650000000
-0.3450000000
-0.3200000000
-0.3150000000
-0.3300000000
-0.3300000000
-0.3500000000
-0.3700000000
-0.3750000000
-0.3600000000
-0.3400000000
-0.3400000000
-0.3650000000
-0.3800000000
-0.3750000000
-0.3600000000
-0.3550000000
-0.3450000000
-0.3200000000
-0.3100000000
-0.3100000000
-0.3150000000
-0.3100000000
-0.2850000000
-0.3000000000
-0.2350000000
-0.2350000000
-0.2550000000
-0.2350000000
-0.2250000000
-0.2150000000
-0.2250000000
-0.2400000000
-0.2500000000
-0.2600000000
-0.2650000000
-0.2300000000
-0.1700000000
-0.1800000000
-0.2000000000
-0.2250000000
-0.2000000000
-0.1400000000
-0.0850000000
-0.0950000000
-0.1200000000
-0.1350000000
-0.1150000000
-0.1100000000
-0.1100000000
-0.1200000000
-0.1150000000
-0.1100000000
-0.1000000000
-0.0950000000
-0.0900000000
-0.0950000000
-0.0850000000
-0.0750000000
-0.0650000000
-0.0700000000
-0.0500000000
-0.0550000000
-0.0500000000
-0.0350000000
-0.0300000000
-0.0200000000
-0.0100000000
0.0050000000
0.0150000000
0.0150000000
0.0050000000
0.0200000000
0.0600000000
0.0800000000
0.0800000000
0.0650000000
0.0750000000
0.0800000000
0.0800000000
0.0900000000
0.0950000000
0.0900000000
0.0950000000
0.1000000000
0.0950000000
0.1000000000
0.1100000000
0.1150000000
0.1200000000
0.1200000000
0.1250000000
0.1300000000
0.1300000000
0.1300000000
0.1300000000
0.1200000000
0.1550000000
0.1500000000
0.1500000000
0.1550000000
0.1500000000
0.1350000000
0.1550000000
0.1750000000
0.1900000000
0.1950000000
0.2000000000
0.2050000000
0.2200000000
0.2100000000
0.2000000000
0.1900000000
0.2150000000
0.2250000000
0.2250000000
0.2000000000
0.2000000000
0.2100000000
0.2100000000
0.2150000000
0.2200000000
0.2150000000
0.2300000000
0.2400000000
0.2550000000
0.2550000000
0.2650000000
0.2800000000
0.3050000000
0.3150000000
0.3300000000
0.3200000000
0.3550000000
0.3600000000
0.3550000000
0.3700000000
0.3800000000
0.3750000000
0.3800000000
0.3950000000
0.4050000000
0.4000000000
0.4050000000
0.4100000000
0.3900000000
0.3900000000
0.4000000000
0.4200000000
0.4450000000
0.4600000000
0.4650000000
0.4500000000
0.4500000000
0.4750000000
0.5150000000
0.5200000000
0.5150000000
0.5050000000
0.5450000000
0.5800000000
0.6100000000
0.6500000000
0.6450000000
0.6250000000
0.6250000000
0.6150000000
0.6150000000
0.6050000000
0.7100000000
0.7400000000
0.7400000000
0.7550000000
0.7650000000
0.7850000000
0.8100000000
0.8300000000
0.8450000000
0.8200000000
0.7650000000
0.7300000000
0.7200000000
0.7050000000
0.6950000000
0.6950000000
0.7300000000
0.7650000000
0.7900000000
0.7900000000
0.7850000000
0.7700000000
0.7500000000
0.7400000000
0.7400000000
0.7550000000
0.7100000000
0.6850000000
0.6700000000
0.6900000000
0.7050000000
0.7250000000
0.7600000000
0.7450000000
0.7250000000
0.7300000000
0.6950000000
0.6600000000
0.6150000000
0.6250000000
0.6150000000
0.5900000000
0.5900000000
0.5950000000
0.6050000000
0.6150000000
0.5950000000
0.5750000000
0.5650000000
0.5650000000
0.5750000000
0.5850000000
0.5750000000
0.5850000000
0.6000000000
0.5650000000
0.5600000000
0.5500000000
0.5300000000
0.5400000000
0.5550000000
0.5700000000
0.5150000000
0.4600000000
0.4150000000
0.4250000000
0.4550000000
0.4800000000
0.4650000000
0.4700000000
0.4800000000
0.4800000000
0.4600000000
0.4450000000
0.4350000000
0.4200000000
0.4100000000
0.4200000000
0.4250000000
0.4300000000
0.4100000000
0.3600000000
0.3700000000
0.3800000000
0.3750000000
0.3900000000
0.3900000000
0.3700000000
0.3350000000
0.3200000000
0.3150000000
0.3050000000
0.3000000000
0.3150000000
0.3450000000
0.3450000000
0.3300000000
0.3050000000
0.3200000000
0.3250000000
0.3150000000
0.3200000000
0.3400000000
0.3550000000
0.3400000000
0.3200000000
0.3050000000
0.3100000000
0.3000000000
0.2950000000
0.2700000000
0.2900000000
0.2850000000
0.2650000000
0.2650000000
0.2600000000
0.2500000000
0.2400000000
0.2400000000
0.2550000000
0.2750000000
0.2650000000
0.2600000000
0.2550000000
0.2700000000
0.2850000000
0.3000000000
0.3000000000
0.3000000000
0.2900000000
0.2800000000
0.2700000000
0.2600000000
0.2450000000
0.2550000000
0.2700000000
0.2850000000
0.2900000000
0.2750000000
0.2550000000
0.2600000000
0.2600000000
0.2500000000
0.2550000000
0.2600000000
0.2950000000
0.3250000000
0.2750000000
0.2350000000
0.2050000000
0.2050000000
0.2300000000
0.2500000000
0.2600000000
0.2700000000
0.2750000000
0.2600000000
0.2450000000
0.2650000000
0.3100000000
0.3300000000
0.2950000000
0.2450000000
0.2350000000
0.2600000000
0.2750000000
0.2500000000
0.2550000000
0.2500000000
0.2250000000
0.2500000000
0.2600000000
0.2650000000
0.2550000000
0.2550000000
0.2550000000
0.2250000000
0.2300000000
0.2450000000
0.2400000000
0.2600000000
0.2700000000
0.3050000000
0.3350000000
0.3050000000
0.2600000000
0.2550000000
0.2750000000
0.2950000000
0.2700000000
0.2500000000
0.2300000000
0.2150000000
0.2250000000
0.2600000000
0.2950000000
0.2900000000
0.2700000000
0.2500000000
0.2350000000
0.2400000000
0.2550000000
0.2650000000
0.2400000000
0.2300000000
0.2500000000
0.2800000000
0.2900000000
0.2800000000
0.2700000000
0.2800000000
0.2950000000
0.2900000000
0.2750000000
0.2600000000
0.2600000000
0.2800000000
0.2850000000
0.2800000000
0.3150000000
0.3300000000
0.3250000000
0.3250000000
0.2900000000
0.2700000000
0.2900000000
0.3000000000
0.3100000000
0.3250000000
0.3150000000
0.3050000000
0.2900000000
0.2800000000
0.3000000000
0.3300000000
0.3450000000
0.3700000000
0.3700000000
0.3100000000
0.3100000000
0.3200000000
0.3300000000
0.3300000000
0.3250000000
0.3250000000
0.3150000000
0.3250000000
0.3450000000
0.3650000000
0.3450000000
0.3400000000
0.3250000000
0.3600000000
0.3500000000
0.3400000000
0.3600000000
0.3800000000
0.4000000000
0.4300000000
0.4500000000
0.4350000000
0.3550000000
0.3350000000
0.3300000000
0.3450000000
0.3450000000
0.3550000000
0.3700000000
0.3850000000
0.4050000000
0.4200000000
0.4200000000
0.4100000000
0.3950000000
0.3950000000
0.4050000000
0.4100000000
0.3900000000
0.3950000000
0.4050000000
0.4100000000
0.3700000000
0.3650000000
0.3750000000
0.3900000000
0.3950000000
0.4000000000
0.3950000000
0.4150000000
0.4200000000
0.4300000000
0.4300000000
0.4250000000
0.4050000000
0.3800000000
0.3650000000
0.3600000000
0.3700000000
0.3850000000
0.3950000000
0.4050000000
0.3950000000
0.3850000000
0.3950000000
0.4250000000
0.4200000000
0.4050000000
0.3850000000
0.3750000000
0.3700000000
0.3950000000
0.3800000000
0.3650000000
0.3450000000
0.3500000000
0.3600000000
0.3650000000
0.3750000000
0.3800000000
0.3800000000
0.3800000000
0.3800000000
0.3700000000
0.3800000000
0.3500000000
0.3600000000
0.3600000000
0.3650000000
0.3750000000
0.3800000000
0.3600000000
0.3700000000
0.3850000000
0.3800000000
0.3650000000
0.3550000000
0.3500000000
0.3650000000
0.3750000000
0.3850000000
0.4050000000
0.3850000000
0.3450000000
0.3100000000
0.3100000000
0.3300000000
0.3400000000
0.3500000000
0.3650000000
0.3900000000
0.3750000000
0.3500000000
0.3250000000
0.3250000000
0.3500000000
0.3800000000
0.3900000000
0.3600000000
0.3250000000
0.3300000000
0.3150000000
0.3250000000
0.3400000000
0.3450000000
0.3500000000
0.3650000000
0.3850000000
0.3800000000
0.3650000000
0.3450000000
0.3450000000
0.3550000000
0.3750000000
0.3850000000
0.4000000000
0.4100000000
0.3750000000
0.3500000000
0.3300000000
0.3300000000
0.3400000000
0.3500000000
0.3500000000
0.3650000000
0.3800000000
0.3900000000
0.4050000000
0.4150000000
0.4250000000
0.4250000000
0.4200000000
0.4250000000
0.4100000000
0.4100000000
0.4050000000
0.4150000000
0.4000000000
0.4100000000
0.4050000000
0.3950000000
0.3900000000
0.3950000000
0.3950000000
0.3900000000
0.3950000000
0.4000000000
0.4000000000
0.3950000000
0.4000000000
0.4100000000
0.4300000000
0.4450000000
0.4200000000
0.4050000000
0.3950000000
0.3950000000
0.3800000000
0.3700000000
0.3700000000
0.3700000000
0.3800000000
0.4000000000
0.3700000000
0.3600000000
0.3500000000
0.3550000000
0.3600000000
0.3550000000
0.3700000000
0.3750000000
0.3800000000
0.3800000000
0.4050000000
0.4100000000
0.4000000000
0.3900000000
0.3900000000
0.4000000000
0.4000000000
0.4100000000
0.4200000000
0.4200000000
0.4250000000
0.4350000000
0.4300000000
0.4200000000
0.4050000000
0.3850000000
0.3850000000
0.3800000000
0.3900000000
0.4250000000
0.4350000000
0.4250000000
0.3900000000
0.3750000000
0.3850000000
0.4250000000
0.3750000000
0.3500000000
0.3450000000
0.3700000000
0.3800000000
0.3850000000
0.3800000000
0.3750000000
0.3550000000
0.3700000000
0.3450000000
0.3800000000
0.4200000000
0.4050000000
0.4000000000
0.4050000000
0.3700000000
0.3500000000
0.3450000000
0.3750000000
0.4200000000
0.4200000000
0.3600000000
0.2950000000
0.2700000000
0.2850000000
0.3200000000
0.3500000000
0.3800000000
0.4150000000
0.4200000000
0.4200000000
0.4150000000
0.4200000000
0.4200000000
0.4100000000
0.3950000000
0.4050000000
0.4300000000
0.4650000000
0.4850000000
0.5100000000
0.5500000000
0.5550000000
0.5500000000
0.5500000000
0.5900000000
0.6100000000
0.6000000000
0.6300000000
0.6500000000
0.6600000000
0.6250000000
0.6150000000
0.6250000000
0.6550000000
0.6700000000
0.6800000000
0.6850000000
0.6750000000
0.6750000000
0.6900000000
0.6900000000
0.6750000000
0.6450000000
0.6050000000
0.5650000000
0.5450000000
0.5600000000
0.5650000000
0.5700000000
0.5850000000
0.6000000000
0.5850000000
0.5550000000
0.5100000000
0.4950000000
0.5000000000
0.5400000000
0.5550000000
0.5650000000
0.5650000000
0.5450000000
0.5200000000
0.4950000000
0.5000000000
0.5250000000
0.5450000000
0.5200000000
0.4900000000
0.4650000000
0.4500000000
0.4600000000
0.4900000000
0.5350000000
0.5350000000
0.5450000000
0.5650000000
0.5650000000
0.5550000000
0.5450000000
0.5350000000
0.5450000000
0.5600000000
0.5700000000
0.5750000000
0.5850000000
0.6050000000
0.6050000000
0.6100000000
0.6200000000
0.6150000000
0.6050000000
0.6000000000
0.6250000000
0.6300000000
0.6150000000
0.6350000000
0.5950000000
0.6050000000
0.6200000000
0.6300000000
0.6350000000
0.6250000000
0.6300000000
0.6400000000
0.6350000000
0.5950000000
0.6000000000
0.6250000000
0.6650000000
0.6400000000
0.6200000000
0.5950000000
0.6150000000
0.6500000000
0.6800000000
0.6600000000
0.6300000000
0.6050000000
0.6050000000
0.6100000000
0.6100000000
0.6250000000
0.6300000000
0.6250000000
0.6100000000
0.6350000000
0.6350000000
0.6200000000
0.6200000000
0.6200000000
0.6200000000
0.6200000000
0.5900000000
0.5800000000
0.5900000000
0.5850000000
0.5850000000
0.6000000000
0.6200000000
0.6100000000
0.5900000000
0.5900000000
0.6050000000
0.6250000000
0.6350000000
0.6150000000
0.6000000000
0.5900000000
0.5900000000
0.5900000000
0.6000000000
0.5950000000
0.6000000000
0.6150000000
0.6300000000
0.6150000000
0.6050000000
0.6150000000
0.5550000000
0.5450000000
0.5700000000
0.5950000000
0.6150000000
0.6200000000
0.6000000000
0.6000000000
0.6150000000
0.6100000000
0.6150000000
0.6050000000
0.5950000000
0.6150000000
0.6250000000
0.6250000000
0.6200000000
0.6100000000
0.6050000000
0.6050000000
0.6000000000
0.6000000000
0.5950000000
0.5750000000
0.5650000000
0.5600000000
0.5950000000
0.5950000000
0.5850000000
0.5750000000
0.5700000000
0.5750000000
0.5750000000
0.5750000000
0.5750000000
0.5650000000
0.5800000000
0.5900000000
0.5900000000
0.5900000000
0.5850000000
0.5900000000
0.6050000000
0.5800000000
0.5500000000
0.5600000000
0.5550000000
0.5800000000
0.6000000000
0.6150000000
0.6150000000
0.5900000000
0.5450000000
0.5400000000
0.5550000000
0.5650000000
0.5500000000
0.5350000000
0.5500000000
0.5600000000
0.5650000000
0.5700000000
0.5750000000
0.5850000000
0.5900000000
0.5650000000
0.5600000000
0.5650000000
0.5600000000
0.5550000000
0.5600000000
0.5700000000
0.5700000000
0.5750000000
0.5850000000
0.5800000000
0.5350000000
0.4950000000
0.4950000000
0.5250000000
0.5650000000
0.5500000000
0.6050000000
0.5850000000
0.5600000000
0.5250000000
0.5200000000
0.5450000000
0.5700000000
0.5700000000
0.5600000000
0.5600000000
0.5550000000
0.5550000000
0.5350000000
0.5450000000
0.5550000000
0.5550000000
0.5700000000
0.5600000000
0.5400000000
0.5250000000
0.5400000000
0.5600000000
0.5550000000
0.5600000000
0.5600000000
0.5500000000
0.5400000000
0.5300000000
0.5150000000
0.4850000000
0.5100000000
0.5550000000
0.5700000000
0.5700000000
0.5500000000
0.5600000000
0.5250000000
0.5350000000
0.5500000000
0.5500000000
0.5550000000
0.5450000000
0.5450000000
0.5400000000
0.5300000000
0.5350000000
0.5400000000
0.5450000000
0.5350000000
0.5250000000
0.5200000000
0.5300000000
0.5450000000
0.5550000000
0.5700000000
0.5900000000
0.6000000000
0.5850000000
0.5550000000
0.5500000000
0.5500000000
0.5650000000
0.5550000000
0.5450000000
0.5350000000
0.5350000000
0.5450000000
0.5550000000
0.5850000000
0.5850000000
0.5750000000
0.5750000000
0.5600000000
0.5700000000
0.5850000000
0.5750000000
0.5650000000
0.5450000000
0.5450000000
0.5450000000
0.5350000000
0.5350000000
0.5350000000
0.5400000000
0.5650000000
0.5650000000
0.5600000000
0.5600000000
0.5600000000
0.5700000000
0.5850000000
0.5900000000
0.5750000000
0.5600000000
0.5650000000
0.5750000000
0.5800000000
0.5850000000
0.5350000000
0.5200000000
0.5350000000
0.5600000000
0.5750000000
0.5800000000
0.5600000000
0.5550000000
0.5550000000
0.5500000000
0.5750000000
0.5800000000
0.5850000000
0.5600000000
0.5500000000
0.5550000000
0.5850000000
0.6100000000
0.6200000000
0.5800000000
0.5600000000
0.5550000000
0.5650000000
0.5950000000
0.6150000000
0.6200000000
0.5900000000
0.5750000000
0.5700000000
0.5650000000
0.5750000000
0.5900000000
0.5950000000
0.5800000000
0.5600000000
0.5350000000
0.5400000000
0.5600000000
0.5950000000
0.5950000000
0.5950000000
0.5950000000
0.5850000000
0.5900000000
0.5900000000
0.6000000000
0.5750000000
0.5850000000
0.5950000000
0.5950000000
0.5850000000
0.5750000000
0.5750000000
0.5500000000
0.5450000000
0.5950000000
0.6050000000
0.6000000000
0.5750000000
0.5650000000
0.5600000000
0.5750000000
0.5750000000
0.5700000000
0.5650000000
0.5800000000
0.5850000000
0.5900000000
0.5800000000
0.6050000000
0.6150000000
0.6000000000
0.5750000000
0.5650000000
0.5700000000
0.5950000000
0.6050000000
0.6050000000
0.5850000000
0.5750000000
0.5600000000
0.5650000000
0.5350000000
0.5400000000
0.5500000000
0.5800000000
0.5950000000
0.6100000000
0.6050000000
0.6000000000
0.5950000000
0.5650000000
0.5650000000
0.5850000000
0.6200000000
0.6200000000
0.6100000000
0.6000000000
0.6000000000
0.5900000000
0.5800000000
0.5900000000
0.5750000000
0.5600000000
0.5850000000
0.5800000000
0.5700000000
0.5550000000
0.5550000000
0.5500000000
0.5450000000
0.5700000000
0.5850000000
0.6000000000
0.6000000000
0.5850000000
0.5650000000
0.5650000000
0.5750000000
0.5700000000
0.5600000000
0.5750000000
0.6000000000
0.6200000000
0.6000000000
0.5900000000
0.5850000000
0.5950000000
0.5900000000
0.5900000000
0.6100000000
0.5700000000
0.5500000000
0.5450000000
0.5450000000
0.5450000000
0.5600000000
0.5850000000
0.5900000000
0.5800000000
0.5750000000
0.5750000000
0.5800000000
0.5750000000
0.5400000000
0.5250000000
0.5350000000
0.5550000000
0.5400000000
0.5350000000
0.5850000000
0.5950000000
0.5950000000
0.5950000000
0.5800000000
0.5650000000
0.5750000000
0.5750000000
0.5800000000
0.5950000000
0.5950000000
0.5950000000
0.5900000000
0.5750000000
0.5700000000
0.5650000000
0.5550000000
0.5700000000
0.5900000000
0.6000000000
0.5700000000
0.5350000000
0.5050000000
0.5250000000
0.5650000000
0.5950000000
0.6000000000
0.5650000000
0.5500000000
0.5700000000
0.6100000000
0.6000000000
0.5650000000
0.5400000000
0.5700000000
0.6000000000
0.5850000000
0.5850000000
0.5750000000
0.5800000000
0.5700000000
0.5800000000
0.5900000000
0.5700000000
0.5550000000
0.5450000000
0.5750000000
0.5850000000
0.5800000000
0.5600000000
0.5550000000
0.5650000000
0.5750000000
0.5650000000
0.5700000000
0.5950000000
0.5850000000
0.5700000000
0.5650000000
0.6000000000
0.6000000000
0.5900000000
0.5900000000
0.5850000000
0.5800000000
0.5850000000
0.5700000000
0.5650000000
0.5650000000
0.5900000000
0.6000000000
0.5950000000
0.5950000000
0.5950000000
0.6000000000
0.6000000000
0.5800000000
0.5550000000
0.5350000000
0.5650000000
0.5750000000
0.5850000000
0.5750000000
0.5700000000
0.5700000000
0.5800000000
0.5500000000
0.5300000000
0.5250000000
0.5750000000
0.6050000000
0.6050000000
0.5750000000
0.5550000000
0.5450000000
0.5600000000
0.5750000000
0.5900000000
0.6100000000
0.6050000000
0.6050000000
0.6300000000
0.6300000000
0.6050000000
0.5800000000
0.5800000000
0.5950000000
0.5950000000
0.5500000000
0.5350000000
0.5350000000
0.5250000000
0.5750000000
0.5850000000
0.5850000000
0.5850000000
0.5850000000
0.5950000000
0.5900000000
0.5900000000
0.6050000000
0.6050000000
0.6050000000
0.6000000000
0.5800000000
0.5900000000
0.5950000000
0.5850000000
0.5850000000
0.5900000000
0.5900000000
0.5650000000
0.5650000000
0.5800000000
0.6050000000
0.6150000000
0.6150000000
0.6000000000
0.5950000000
0.5750000000
0.5550000000
0.5750000000
0.5900000000
0.5950000000
0.5750000000
0.5700000000
0.5700000000
0.5650000000
0.6200000000
0.6400000000
0.6350000000
0.6200000000
0.6150000000
0.6050000000
0.6050000000
0.5850000000
0.5700000000
0.5800000000
0.6100000000
0.6200000000
0.6050000000
0.6050000000
0.6150000000
0.6250000000
0.6050000000
0.5900000000
0.5850000000
0.6000000000
0.6050000000
0.6100000000
0.6100000000
0.6050000000
0.6100000000
0.6200000000
0.6450000000
0.6400000000
0.6200000000
0.5950000000
0.6000000000
0.6200000000
0.6300000000
0.6300000000
0.6200000000
0.6200000000
0.6350000000
0.6350000000
0.6100000000
0.6100000000
0.6350000000
0.6600000000
0.6800000000
0.6550000000
0.6250000000
0.6150000000
0.6150000000
0.6300000000
0.6500000000
0.6650000000
0.6650000000
0.6400000000
0.6350000000
0.6200000000
0.6050000000
0.6050000000
0.6050000000
0.6150000000
0.6150000000
0.6100000000
0.6150000000
0.6350000000
0.6350000000
0.6300000000
0.6250000000
0.6400000000
0.6450000000
0.6500000000
0.6500000000
0.6400000000
0.6250000000
0.6350000000
0.6050000000
0.6150000000
0.6250000000
0.6450000000
0.6550000000
0.6650000000
0.6600000000
0.6500000000
0.6400000000
0.6250000000
0.6150000000
0.6100000000
0.6200000000
0.6300000000
0.6350000000
0.6300000000
0.6500000000
0.6450000000
0.6300000000
0.6100000000
0.6050000000
0.6000000000
0.5950000000
0.5900000000
0.5950000000
0.6250000000
0.6350000000
0.6400000000
0.6450000000
0.6700000000
0.6550000000
0.6300000000
0.6150000000
0.6050000000
0.5950000000
0.5950000000
0.6100000000
0.6050000000
0.6000000000
0.6150000000
0.6200000000
0.6100000000
0.6200000000
0.6250000000
0.6200000000
0.6200000000
0.6050000000
0.5900000000
0.6000000000
0.6500000000
0.6650000000
0.6400000000
0.6300000000
0.6300000000
0.6350000000
0.6250000000
0.6150000000
0.6050000000
0.5950000000
0.5950000000
0.6000000000
0.6050000000
0.6200000000
0.6250000000
0.6150000000
0.6050000000
0.6000000000
0.6050000000
0.6050000000
0.6300000000
0.6400000000
0.6500000000
0.6250000000
0.6300000000
0.6200000000
0.6200000000
0.6200000000
0.6250000000
0.6450000000
0.6400000000
0.6300000000
0.6300000000
0.6250000000
0.6300000000
0.6400000000
0.6350000000
0.6200000000
0.6050000000
0.5900000000
0.5950000000
0.6100000000
0.6400000000
0.6450000000
0.6350000000
0.6100000000
0.6050000000
0.6000000000
0.6000000000
0.6100000000
0.6150000000
0.6050000000
0.6200000000
0.6250000000
0.6300000000
0.6300000000
0.6250000000
0.6150000000
0.6150000000
0.5700000000
0.5650000000
0.6000000000
0.6000000000
0.6000000000
0.5850000000
0.6000000000
0.6200000000
0.6350000000
0.6350000000
0.6050000000
0.5850000000
0.5950000000
0.5950000000
0.6000000000
0.6100000000
0.6200000000
0.6150000000
0.6000000000
0.6100000000
0.6300000000
0.6450000000
0.6450000000
0.6250000000
0.6000000000
0.5800000000
0.5800000000
0.5900000000
0.6100000000
0.6100000000
0.5950000000
0.5650000000
0.5450000000
0.5450000000
0.5550000000
0.5500000000
0.6250000000
0.6450000000
0.6350000000
0.6200000000
0.6100000000
0.6100000000
0.6100000000
0.6100000000
0.6150000000
0.6150000000
0.6200000000
0.6250000000
0.6150000000
0.6100000000
0.5950000000
0.5800000000
0.5700000000
0.5750000000
0.5850000000
0.5850000000
0.5800000000
0.5850000000
0.5850000000
0.5600000000
0.5450000000
0.5650000000
0.5800000000
0.5900000000
0.5900000000
0.6150000000
0.5950000000
0.5750000000
0.5900000000
0.6000000000
0.6000000000
0.6050000000
0.5750000000
0.5800000000
0.5700000000
0.5850000000
0.5950000000
0.6000000000
0.6200000000
0.6000000000
0.5800000000
0.5750000000
0.5950000000
0.6050000000
0.5800000000
0.5700000000
0.5750000000
0.6000000000
0.5900000000
0.5850000000
0.5800000000
0.5700000000
0.5650000000
0.5750000000
0.5850000000
0.5850000000
0.5850000000
0.5800000000
0.5800000000
0.5900000000
0.6000000000
0.5850000000
0.5800000000
0.5850000000
0.5850000000
0.5850000000
0.5900000000
0.5900000000
0.5700000000
0.5600000000
0.5650000000
0.5650000000
0.5700000000
0.5650000000
0.5600000000
0.5550000000
0.5600000000
0.5600000000
0.5600000000
0.5550000000
0.5550000000
0.5650000000
0.5800000000
0.5900000000
0.5850000000
0.5750000000
0.5700000000
0.5700000000
0.5550000000
0.5500000000
0.5600000000
0.5750000000
0.5700000000
0.5350000000
0.5400000000
0.5450000000
0.5400000000
0.5400000000
0.5550000000
0.5750000000
0.5750000000
0.5750000000
0.5600000000
0.5700000000
0.5200000000
0.5200000000
0.5400000000
0.5450000000
0.5450000000
0.5350000000
0.5550000000
0.5450000000
0.5350000000
0.5500000000
0.5400000000
0.5300000000
0.5300000000
0.5250000000
0.5150000000
0.5050000000
0.5350000000
0.5400000000
0.5300000000
0.5300000000
0.5300000000
0.5300000000
0.5300000000
0.5100000000
0.5000000000
0.5100000000
0.5200000000
0.5250000000
0.5150000000
0.5150000000
0.5200000000
0.5150000000
0.5200000000
0.5250000000
0.5200000000
0.5200000000
0.5050000000
0.5000000000
0.5100000000
0.4950000000
0.4850000000
0.4850000000
0.4850000000
0.5050000000
0.5250000000
0.5200000000
0.4900000000
0.4800000000
0.4900000000
0.5150000000
0.5300000000
0.5300000000
0.5300000000
0.5300000000
0.5150000000
0.5200000000
0.5300000000
0.5350000000
0.5300000000
0.5100000000
0.5000000000
0.5100000000
0.5100000000
0.5000000000
0.4750000000
0.4750000000
0.4850000000
0.4950000000
0.5250000000
0.5300000000
0.5350000000
0.5300000000
0.5300000000
0.5000000000
0.4750000000
0.4900000000
0.5050000000
0.5200000000
0.5050000000
0.4900000000
0.4800000000
0.4900000000
0.4850000000
0.4750000000
0.4750000000
0.4750000000
0.4750000000
0.4800000000
0.4750000000
0.4850000000
0.5050000000
0.5250000000
0.5050000000
0.4850000000
0.4800000000
0.4850000000
0.5050000000
0.5250000000
0.5200000000
0.5100000000
0.5000000000
0.4850000000
0.4850000000
0.4950000000
0.5050000000
0.4900000000
0.4750000000
0.4750000000
0.4750000000
0.4600000000
0.4500000000
0.4650000000
0.4700000000
0.4700000000
0.4900000000
0.4900000000
0.4700000000
0.4350000000
0.4450000000
0.4600000000
0.4700000000
0.4800000000
0.4800000000
0.4600000000
0.4600000000
0.4600000000
0.4600000000
0.4600000000
0.4700000000
0.4850000000
0.4950000000
0.4600000000
0.4400000000
0.4450000000
0.4300000000
0.4250000000
0.4250000000
0.4250000000
0.4300000000
0.4400000000
0.4400000000
0.4450000000
0.4400000000
0.4400000000
0.4300000000
0.4250000000
0.4350000000
0.4250000000
0.4200000000
0.4200000000
0.4200000000
0.4250000000
0.4350000000
0.4400000000
0.4450000000
0.4300000000
0.4100000000
0.4250000000
0.4400000000
0.4500000000
0.4350000000
0.4200000000
0.4150000000
0.4350000000
0.4350000000
0.4300000000
0.4050000000
0.4000000000
0.4000000000
0.4100000000
0.4100000000
0.4100000000
0.4100000000
0.4200000000
0.4400000000
0.4550000000
0.4250000000
0.4000000000
0.3800000000
0.3800000000
0.3950000000
0.3900000000
0.3700000000
0.3950000000
0.4000000000
0.3900000000
0.3700000000
0.3750000000
0.3850000000
0.3850000000
0.3900000000
0.3850000000
0.4050000000
0.3950000000
0.3750000000
0.3550000000
0.3500000000
0.3400000000
0.3350000000
0.3200000000
0.3300000000
0.3500000000
0.3600000000
0.3700000000
0.3700000000
0.3600000000
0.3350000000
0.3350000000
0.3550000000
0.3550000000
0.3350000000
0.3200000000
0.3200000000
0.3300000000
0.3350000000
0.3350000000
0.3100000000
0.2950000000
0.2900000000
0.2900000000
0.2850000000
0.2950000000
0.3000000000
0.3150000000
0.3200000000
0.3100000000
0.3050000000
0.3000000000
0.2900000000
0.2900000000
0.2900000000
0.2850000000
0.3000000000
0.3050000000
0.2950000000
0.2600000000
0.2450000000
0.2400000000
0.2650000000
0.2800000000
0.2850000000
0.2700000000
0.2700000000
0.2650000000
0.2550000000
0.2450000000
0.2450000000
0.2550000000
0.2650000000
0.2750000000
0.2750000000
0.2800000000
0.2400000000
0.2200000000
0.1950000000
0.2100000000
0.2200000000
0.2250000000
0.2300000000
0.2250000000
0.2000000000
0.1700000000
0.1700000000
0.1800000000
0.2000000000
0.2200000000
0.2250000000
0.2100000000
0.1800000000
0.1800000000
0.1950000000
0.1950000000
0.2050000000
0.2200000000
0.2200000000
0.2250000000
0.2050000000
0.1750000000
0.1750000000
0.1900000000
0.2100000000
0.1950000000
0.1700000000
0.1400000000
0.1250000000
0.1350000000
0.1450000000
0.1450000000
0.1450000000
0.1450000000
0.1350000000
0.1450000000
0.1700000000
0.1950000000
0.1700000000
0.1550000000
0.1500000000
0.1650000000
0.1650000000
0.1500000000
0.1300000000
0.1200000000
0.1200000000
0.1350000000
0.1350000000
0.1350000000
0.1250000000
0.1400000000
0.1400000000
0.1350000000
0.1350000000
0.1150000000
0.1050000000
0.1100000000
0.0950000000
0.0850000000
0.0800000000
0.0650000000
0.0600000000
0.0700000000
0.0900000000
0.1000000000
0.1100000000
0.1100000000
0.1100000000
0.1000000000
0.0850000000
0.0850000000
0.1000000000
0.1150000000
0.0900000000
0.0550000000
0.0400000000
0.0550000000
0.0650000000
0.0650000000
0.0450000000
0.0350000000
0.0500000000
0.0850000000
0.0850000000
0.0800000000
0.0750000000
0.0600000000
0.0400000000
0.0250000000
0.0250000000
0.0400000000
0.0500000000
0.0550000000
0.0550000000
0.0550000000
0.0450000000
0.0500000000
0.0550000000
0.0600000000
0.0600000000
0.0500000000
0.0350000000
0.0400000000
0.0150000000
0.0200000000
0.0200000000
0.0450000000
0.0400000000
0.0100000000
-0.0250000000
-0.0200000000
-0.0050000000
-0.0050000000
-0.0050000000
-0.0050000000
-0.0150000000
-0.0050000000
0.0100000000
0.0300000000
0.0200000000
0.0100000000
0.0000000000
0.0000000000
0.0100000000
0.0200000000
0.0100000000
-0.0150000000
-0.0250000000
-0.0150000000
-0.0150000000
-0.0100000000
0.0100000000
0.0050000000
-0.0050000000
-0.0150000000
-0.0150000000
-0.0100000000
-0.0200000000
-0.0150000000
-0.0350000000
-0.0250000000
-0.0350000000
-0.0350000000
-0.0350000000
-0.0250000000
-0.0150000000
-0.0200000000
-0.0350000000
-0.0450000000
-0.0500000000
-0.0350000000
-0.0100000000
-0.0100000000
-0.0100000000
-0.0100000000
-0.0250000000
-0.0200000000
-0.0150000000
-0.0400000000
-0.0400000000
-0.0350000000
-0.0400000000
-0.0300000000
-0.0200000000
-0.0200000000
-0.0250000000
-0.0300000000
-0.0300000000
-0.0200000000
-0.0050000000
0.0050000000
-0.0050000000
-0.0300000000
-0.0350000000
-0.0450000000
-0.0150000000
-0.0250000000
-0.0350000000
-0.0200000000
-0.0250000000
-0.0450000000
-0.0550000000
-0.0550000000
-0.0400000000
-0.0300000000
-0.0100000000
0.0050000000
0.0000000000
-0.0300000000
-0.0450000000
-0.0400000000
-0.0400000000
-0.0250000000
-0.0200000000
-0.0200000000
-0.0200000000
-0.0250000000
-0.0200000000
-0.0250000000
-0.0350000000
-0.0350000000
-0.0450000000
-0.0500000000
-0.0600000000
-0.0600000000
-0.0550000000
-0.0600000000
-0.0550000000
-0.0450000000
-0.0350000000
-0.0350000000
-0.0400000000
-0.0400000000
-0.0500000000
-0.0350000000
-0.0300000000
-0.0200000000
-0.0250000000
-0.0300000000
-0.0300000000
-0.0300000000
-0.0300000000
-0.0300000000
-0.0200000000
-0.0450000000
-0.0700000000
-0.0850000000
-0.0850000000
-0.0600000000
-0.0300000000
-0.0150000000
-0.0100000000
-0.0100000000
-0.0150000000
-0.0150000000
-0.0150000000
-0.0250000000
-0.0300000000
-0.0250000000
-0.0050000000
-0.0050000000
0.0000000000
0.0050000000
0.0050000000
-0.0100000000
-0.0200000000
-0.0200000000
-0.0250000000
-0.0250000000
-0.0300000000
-0.0350000000
-0.0350000000
-0.0250000000
-0.0250000000
-0.0200000000
-0.0150000000
-0.0400000000
-0.0300000000
-0.0150000000
-0.0100000000
-0.0200000000
-0.0250000000
-0.0300000000
-0.0400000000
-0.0300000000
-0.0150000000
-0.0400000000
-0.0450000000
-0.0450000000
-0.0500000000
-0.0450000000
-0.0400000000
-0.0450000000
-0.0450000000
-0.0400000000
-0.0350000000
-0.0150000000
-0.0200000000
-0.0350000000
-0.0500000000
-0.0500000000
-0.0400000000
-0.0450000000
-0.0250000000
-0.0300000000
-0.0300000000
-0.0400000000
-0.0400000000
-0.0250000000
-0.0350000000
-0.0400000000
-0.0450000000
-0.0450000000
-0.0400000000
-0.0400000000
-0.0350000000
-0.0450000000
-0.0550000000
-0.0450000000
-0.0400000000
-0.0300000000
-0.0200000000
-0.0250000000
-0.0350000000
-0.0400000000
-0.0400000000
-0.0400000000
-0.0350000000
-0.0400000000
-0.0500000000
-0.0500000000
-0.0400000000
-0.0400000000
-0.0450000000
-0.0500000000
-0.0500000000
-0.0400000000
-0.0350000000
-0.0300000000
-0.0550000000
-0.0550000000
-0.0700000000
-0.0600000000
-0.0600000000
-0.0700000000
-0.0650000000
-0.0600000000
-0.0650000000
-0.0750000000
-0.0750000000
-0.0700000000
-0.0850000000
-0.0850000000
-0.0850000000
-0.0750000000
-0.0700000000
-0.0650000000
-0.0700000000
-0.0750000000
-0.0800000000
-0.0750000000
-0.0750000000
-0.0750000000
-0.0850000000
-0.1150000000
-0.1100000000
-0.1050000000
-0.1150000000
-0.1150000000
-0.1050000000
-0.0950000000
-0.1100000000
-0.1100000000
-0.1050000000
-0.1050000000
-0.1200000000
-0.1250000000
-0.1150000000
-0.1300000000
-0.1350000000
-0.1350000000
-0.1350000000
-0.1350000000
-0.1400000000
-0.1400000000
-0.1350000000
-0.1450000000
-0.1650000000
-0.1400000000
-0.1250000000
-0.1350000000
-0.1400000000
-0.1550000000
-0.1700000000
-0.1550000000
-0.1550000000
-0.1650000000
-0.1650000000
-0.1550000000
-0.1600000000
-0.1850000000
-0.1750000000
-0.1700000000
-0.1650000000
-0.1650000000
-0.1650000000
-0.1750000000
-0.1750000000
-0.1750000000
-0.1750000000
-0.1850000000
-0.1650000000
-0.1750000000
-0.1800000000
-0.1650000000
-0.1600000000
-0.1700000000
-0.1650000000
-0.1550000000
-0.1500000000
-0.1500000000
-0.1700000000
-0.1750000000
-0.1650000000
-0.1700000000
-0.1700000000
-0.1600000000
-0.1600000000
-0.1550000000
-0.1550000000
-0.1600000000
-0.1650000000
-0.1600000000
-0.1550000000
-0.1500000000
-0.1550000000
-0.1650000000
-0.1600000000
-0.1550000000
-0.1550000000
-0.1550000000
-0.1550000000
-0.1600000000
-0.1600000000
-0.1600000000
-0.1650000000
-0.1650000000
-0.1500000000
-0.1450000000
-0.1550000000
-0.1550000000
-0.1600000000
-0.1700000000
-0.1650000000
-0.1550000000
-0.1550000000
-0.1750000000
-0.1750000000
-0.1700000000
-0.1700000000
-0.1750000000
-0.1800000000
-0.1800000000
-0.1750000000
-0.1700000000
-0.1650000000
-0.1600000000
-0.1550000000
-0.1550000000
-0.1550000000
-0.1600000000
-0.1650000000
-0.1600000000
-0.1600000000
-0.1650000000
-0.1750000000
-0.1500000000
-0.1450000000
-0.1500000000
-0.1550000000
-0.1550000000
-0.1450000000
-0.1450000000
-0.1350000000
-0.1300000000
-0.1400000000
-0.1400000000
-0.1450000000
-0.1400000000
-0.1400000000
-0.1450000000
-0.1400000000
-0.1400000000
-0.1500000000
-0.1600000000
-0.1700000000
-0.1650000000
-0.1600000000
-0.1600000000
-0.1550000000
-0.1500000000
-0.1550000000
-0.1600000000
-0.1650000000
-0.1600000000
-0.1600000000
-0.1550000000
-0.1500000000
-0.1400000000
-0.1400000000
-0.1400000000
-0.1550000000
-0.1350000000
-0.1300000000
-0.1350000000
-0.1450000000
-0.1500000000
-0.1500000000
-0.1500000000
-0.1350000000
-0.1300000000
-0.1350000000
-0.1350000000
-0.1350000000
-0.1450000000
-0.1300000000
-0.1300000000
-0.1350000000
-0.1350000000
-0.1450000000
-0.1550000000
-0.1450000000
-0.1450000000
-0.1450000000
-0.1550000000
-0.1500000000
-0.1450000000
-0.1450000000
-0.1450000000
-0.1400000000
-0.1300000000
-0.1300000000
-0.1400000000
-0.1500000000
-0.1450000000
-0.1300000000
-0.1200000000
-0.1250000000
-0.1350000000
-0.1350000000
-0.1300000000
-0.1300000000
-0.1300000000
-0.1300000000
-0.1350000000
-0.1150000000
-0.1200000000
-0.1150000000
-0.1000000000
-0.0950000000
-0.1000000000
-0.1000000000
-0.1000000000
-0.1000000000
-0.1200000000
-0.1250000000
-0.1200000000
-0.1050000000
-0.1150000000
-0.1200000000
-0.1200000000
-0.1250000000
-0.1300000000
-0.1250000000
-0.1250000000
-0.1150000000
-0.1100000000
-0.1200000000
-0.1200000000
-0.1150000000
-0.1050000000
-0.1100000000
-0.1150000000
-0.1200000000
-0.1150000000
-0.1150000000
-0.1200000000
-0.1050000000
-0.0800000000
-0.0650000000
-0.0650000000
-0.0600000000
-0.0500000000
-0.0600000000
-0.0600000000
-0.0700000000
-0.0900000000
-0.0850000000
-0.0800000000
-0.0800000000
-0.0800000000
-0.0750000000
-0.0700000000
-0.0800000000
-0.0650000000
-0.0550000000
-0.0550000000
-0.0550000000
-0.0600000000
-0.0600000000
-0.0500000000
-0.0450000000
-0.0500000000
-0.0500000000
-0.0600000000
-0.0600000000
-0.0450000000
-0.0450000000
-0.0450000000
-0.0350000000
-0.0500000000
-0.0550000000
-0.0500000000
-0.0500000000
-0.0600000000
-0.0700000000
-0.0700000000
-0.0500000000
-0.0450000000
-0.0400000000
-0.0400000000
-0.0450000000
-0.0500000000
-0.0500000000
-0.0450000000
-0.0500000000
-0.0500000000
-0.0400000000
-0.0350000000
-0.0400000000
-0.0350000000
-0.0350000000
-0.0500000000
-0.0500000000
-0.0400000000
-0.0300000000
-0.0300000000
-0.0350000000
-0.0350000000
-0.0200000000
-0.0100000000
-0.0150000000
-0.0450000000
-0.0450000000
-0.0400000000
-0.0300000000
-0.0350000000
-0.0400000000
-0.0400000000
-0.0400000000
-0.0450000000
-0.0500000000
-0.0500000000
-0.0350000000
-0.0300000000
-0.0400000000
-0.0400000000
-0.0400000000
-0.0300000000
-0.0250000000
-0.0200000000
-0.0200000000
-0.0200000000
-0.0350000000
-0.0450000000
-0.0500000000
-0.0500000000
-0.0500000000
-0.0550000000
-0.0450000000
-0.0400000000
-0.0350000000
-0.0250000000
-0.0400000000
-0.0550000000
-0.0600000000
-0.0550000000
-0.0450000000
-0.0300000000
-0.0300000000
-0.0350000000
-0.0450000000
-0.0450000000
-0.0450000000
-0.0350000000
-0.0500000000
-0.0600000000
-0.0650000000
-0.0650000000
-0.0600000000
-0.0600000000
-0.0450000000
-0.0550000000
-0.0600000000
-0.0600000000
-0.0600000000
-0.0500000000
-0.0450000000
-0.0550000000
-0.0650000000
-0.0750000000
-0.0700000000
-0.0700000000
-0.0700000000
-0.0700000000
-0.0600000000
-0.0550000000
-0.0600000000
-0.0700000000
-0.0850000000
-0.0950000000
-0.1000000000
-0.1000000000
-0.0950000000
-0.0950000000
-0.0800000000
-0.0900000000
-0.1100000000
-0.1100000000
-0.1050000000
-0.1050000000
-0.1050000000
-0.1000000000
-0.1050000000
-0.1050000000
-0.1150000000
-0.1200000000
-0.1250000000
-0.1450000000
-0.1500000000
-0.1400000000
-0.1200000000
-0.1150000000
-0.1200000000
-0.1250000000
-0.1350000000
-0.1350000000
-0.1250000000
-0.1500000000
-0.1550000000
-0.1400000000
-0.1350000000
-0.1400000000
-0.1550000000
-0.1550000000
-0.1600000000
-0.1700000000
-0.1700000000
-0.1750000000
-0.1800000000
-0.1650000000
-0.1800000000
-0.1850000000
-0.1800000000
-0.1800000000
-0.1850000000
-0.1900000000
-0.2050000000
-0.2100000000
-0.2150000000
-0.2150000000
-0.2150000000
-0.2200000000
-0.2400000000
-0.2350000000
-0.2300000000
-0.2400000000
-0.2400000000
-0.2400000000
-0.2500000000
-0.2600000000
-0.2500000000
-0.2400000000
-0.2450000000
-0.2500000000
-0.2550000000
-0.2650000000
-0.2750000000
-0.2800000000
-0.2850000000
-0.2850000000
-0.2900000000
-0.2850000000
-0.2850000000
-0.2900000000
-0.2950000000
-0.2950000000
-0.2950000000
-0.3000000000
-0.3100000000
-0.3100000000
-0.3250000000
-0.3350000000
-0.3350000000
-0.3350000000
-0.3350000000
-0.3350000000
-0.3400000000
-0.3500000000
-0.3550000000
-0.3550000000
-0.3600000000
-0.3750000000
-0.3650000000
-0.3700000000
-0.3800000000
-0.3700000000
-0.3850000000
-0.4050000000
-0.4200000000
-0.4100000000
-0.4050000000
-0.4000000000
-0.3800000000
-0.4050000000
-0.4350000000
-0.4200000000
-0.4250000000
-0.4400000000
-0.4500000000
-0.4550000000
-0.4600000000
-0.4650000000
-0.4550000000
-0.4500000000
-0.4600000000
-0.4850000000
-0.5050000000
-0.5150000000
-0.5000000000
-0.4950000000
-0.4900000000
-0.4900000000
-0.5000000000
-0.5100000000
-0.5200000000
-0.5150000000
-0.5100000000
-0.5200000000
-0.5200000000
-0.5350000000
-0.5500000000
-0.5500000000
-0.5600000000
-0.5650000000
-0.5650000000
-0.5650000000
-0.5650000000
-0.5650000000
-0.5750000000
-0.5800000000
-0.5750000000
-0.5800000000
-0.5800000000
-0.5750000000
-0.5850000000
-0.6000000000
-0.6050000000
-0.5950000000
-0.6050000000
-0.6150000000
-0.6250000000
-0.6250000000
-0.6250000000
-0.6300000000
-0.6350000000
-0.6400000000
-0.6350000000
-0.6350000000
-0.6450000000
-0.6500000000
-0.6550000000
-0.6700000000
-0.6750000000
-0.6700000000
-0.6700000000
-0.6700000000
-0.6800000000
-0.6800000000
-0.6750000000
-0.6700000000
-0.6950000000
-0.6950000000
-0.6900000000
-0.6900000000
-0.7100000000
-0.7200000000
-0.7250000000
-0.7250000000
-0.7350000000
-0.7400000000
-0.7450000000
-0.7400000000
-0.7350000000
-0.7550000000
-0.7550000000
-0.7500000000
-0.7600000000
-0.7800000000
-0.7850000000
-0.7900000000
-0.7900000000
-0.7900000000
-0.7850000000
-0.7850000000
-0.7800000000
-0.7850000000
-0.7950000000
-0.7950000000
-0.7900000000
-0.8000000000
-0.8200000000
-0.8250000000
-0.8250000000
-0.8150000000
-0.8100000000
-0.8250000000
-0.8450000000
-0.8450000000
-0.8400000000
-0.8350000000
-0.8350000000
-0.8500000000
-0.8600000000
-0.8600000000
-0.8750000000
-0.8900000000
-0.8850000000
-0.8800000000
-0.8800000000
-0.8900000000
-0.8900000000
-0.8950000000
-0.9000000000
-0.9100000000
-0.9050000000
-0.8950000000
-0.8850000000
-0.9050000000
-0.9250000000
-0.9250000000
-0.9450000000
-0.9450000000
-0.9300000000
-0.9350000000
-0.9400000000
-0.9350000000
-0.9550000000
-0.9600000000
-0.9550000000
-0.9550000000
-0.9550000000
-0.9550000000
-0.9700000000
-0.9600000000
-0.9600000000
-0.9750000000
-0.9900000000
-0.9800000000
-0.9700000000
-0.9750000000
-0.9850000000
-0.9900000000
-0.9900000000
-1.0000000000
-1.0000000000
-0.9900000000
-0.9900000000
-0.9900000000
-1.0050000000
-1.0100000000
-1.0150000000
-1.0100000000
-1.0200000000
-1.0400000000
-1.0500000000
-1.0500000000
-1.0500000000
-1.0550000000
-1.0550000000
-1.0700000000
-1.0750000000
-1.0850000000
-1.0800000000
-1.0700000000
-1.0650000000
-1.0700000000
-1.0800000000
-1.0950000000
-1.1050000000
-1.0950000000
-1.0950000000
-1.1100000000
-1.1100000000
-1.1100000000
-1.1100000000
-1.1150000000
-1.1200000000
-1.1250000000
-1.1300000000
-1.1350000000
-1.1300000000
-1.1200000000
-1.1250000000
-1.1300000000
-1.1300000000
-1.1400000000
-1.1400000000
-1.1350000000
-1.1400000000
-1.1400000000
-1.1300000000
-1.1300000000
-1.1550000000
-1.1650000000
-1.1650000000
-1.1700000000
-1.1750000000
-1.1700000000
-1.1700000000
-1.1750000000
-1.1850000000
-1.1700000000
-1.1550000000
-1.1500000000
-1.1700000000
-1.1550000000
-1.1550000000
-1.1700000000
-1.1700000000
-1.1750000000
-1.1700000000
-1.1850000000
-1.1900000000
-1.1900000000
-1.1900000000
-1.1900000000
-1.1900000000
-1.1950000000
-1.1900000000
-1.1900000000
-1.2000000000
-1.2000000000
-1.1950000000
-1.1850000000
-1.1850000000
-1.1900000000
-1.2050000000
-1.2000000000
-1.2100000000
-1.2050000000
-1.2050000000
-1.2050000000
-1.2150000000
-1.2250000000
-1.2350000000
-1.2250000000
-1.2100000000
-1.2200000000
-1.2250000000
-1.2350000000
-1.2500000000
-1.2250000000
-1.2200000000
-1.2300000000
-1.2300000000
-1.2300000000
-1.2300000000
-1.2300000000
-1.2300000000
-1.2300000000
-1.2500000000
-1.2500000000
-1.2400000000
-1.2200000000
-1.2500000000
-1.2600000000
-1.2500000000
-1.2550000000
-1.2600000000
-1.2600000000
-1.2600000000
-1.2600000000
-1.2600000000
-1.2650000000
-1.2450000000
-1.2500000000
-1.2550000000
-1.2550000000
-1.2550000000
-1.2700000000
-1.2750000000
-1.2700000000
-1.2600000000
-1.2600000000
-1.2650000000
-1.2700000000
-1.2650000000
-1.2650000000
-1.2700000000
-1.2750000000
-1.2800000000
-1.2850000000
-1.2800000000
-1.2800000000
-1.2750000000
-1.2700000000
-1.2750000000
-1.2850000000
-1.2900000000
-1.3000000000
-1.2750000000
-1.2700000000
-1.2850000000
-1.2850000000
-1.2800000000
-1.2750000000
-1.2750000000
-1.2800000000
-1.2750000000
-1.2750000000
-1.2750000000
-1.2800000000
-1.2850000000
-1.2850000000
-1.2850000000
-1.2750000000
-1.2750000000
-1.2850000000
-1.2950000000
-1.2900000000
-1.2850000000
-1.2800000000
-1.2750000000
-1.2750000000
-1.2800000000
-1.2950000000
-1.2750000000
-1.2700000000
-1.2750000000
-1.2800000000
-1.2850000000
-1.2850000000
-1.3050000000
-1.3000000000
-1.2900000000
-1.2800000000
-1.2800000000
-1.2900000000
-1.3050000000
-1.2950000000
-1.2900000000
-1.2950000000
-1.2950000000
-1.2950000000
-1.3000000000
-1.3050000000
-1.2850000000
-1.2900000000
-1.3000000000
-1.2850000000
-1.2800000000
-1.2700000000
-1.2850000000
-1.2850000000
-1.2800000000
-1.2800000000
-1.2850000000
-1.2800000000
-1.2800000000
-1.2800000000
-1.2800000000
-1.2700000000
-1.2750000000
-1.2800000000
-1.2800000000
-1.2800000000
-1.2950000000
-1.3050000000
-1.2950000000
-1.2950000000
-1.3000000000
-1.2950000000
-1.2950000000
-1.2950000000
-1.2850000000
-1.2800000000
-1.2850000000
-1.3000000000
-1.2900000000
-1.2800000000
-1.2750000000
-1.2750000000
-1.2850000000
-1.2850000000
-1.2950000000
-1.2950000000
-1.2950000000
-1.2800000000
-1.2750000000
-1.2750000000
-1.2800000000
-1.2550000000
-1.2650000000
-1.2750000000
-1.2700000000
-1.2700000000
-1.2750000000
-1.2650000000
-1.2750000000
-1.2700000000
-1.2600000000
-1.2550000000
-1.2550000000
-1.2600000000
-1.2600000000
-1.2650000000
-1.2700000000
-1.2750000000
-1.2700000000
-1.2700000000
-1.2700000000
-1.2500000000
-1.2400000000
-1.2350000000
-1.2450000000
-1.2500000000
-1.2400000000
-1.2450000000
-1.2250000000
-1.2300000000
-1.2500000000
-1.2500000000
-1.2450000000
-1.2550000000
-1.2400000000
-1.2400000000
-1.2450000000
-1.2450000000
-1.2400000000
-1.2300000000
-1.2300000000
-1.2400000000
-1.2400000000
-1.2250000000
-1.2400000000
-1.2400000000
-1.2300000000
-1.2450000000
-1.2500000000
-1.2400000000
-1.2300000000
-1.2300000000
-1.2350000000
-1.2400000000
-1.2400000000
-1.2350000000
-1.2350000000
-1.2350000000
-1.2300000000
-1.2200000000
-1.2150000000
-1.2300000000
-1.2300000000
-1.2400000000
-1.2050000000
-1.2100000000
-1.2050000000
-1.2050000000
-1.2050000000
-1.2000000000
-1.2100000000
-1.2100000000
-1.2000000000
-1.2000000000
-1.2000000000
-1.2050000000
-1.2150000000
-1.2050000000
-1.1950000000
-1.1900000000
-1.1900000000
-1.1950000000
-1.1900000000
-1.1900000000
-1.1850000000
-1.1750000000
-1.1800000000
-1.1850000000
-1.1800000000
-1.1600000000
-1.1750000000
-1.1800000000
-1.1800000000
-1.1800000000
-1.1800000000
-1.1750000000
-1.1700000000
-1.1700000000
-1.1600000000
-1.1650000000
-1.1450000000
-1.1550000000
-1.1750000000
-1.1550000000
-1.1450000000
-1.1550000000
-1.1450000000
-1.1450000000
-1.1500000000
-1.1400000000
-1.1350000000
-1.1350000000
-1.1500000000
-1.1450000000
-1.1400000000
-1.1350000000
-1.1350000000
-1.1300000000
-1.1300000000
-1.1200000000
-1.1150000000
-1.1200000000
-1.1150000000
-1.1000000000
-1.1000000000
-1.1150000000
-1.1000000000
-1.0900000000
-1.0950000000
-1.0850000000
-1.0850000000
-1.0950000000
-1.0900000000
-1.0850000000
-1.0800000000
-1.0800000000
-1.0800000000
-1.0850000000
-1.0850000000
-1.0900000000
-1.0950000000
-1.0850000000
-1.0850000000
-1.0750000000
-1.0650000000
-1.0750000000
-1.0650000000
-1.0500000000
-1.0550000000
-1.0650000000
-1.0650000000
-1.0400000000
-1.0450000000
-1.0450000000
-1.0400000000
-1.0350000000
-1.0350000000
-1.0400000000
-1.0400000000
-1.0400000000
-1.0400000000
-1.0550000000
-1.0400000000
-1.0250000000
-1.0100000000
-1.0150000000
-1.0200000000
-1.0250000000
-1.0300000000
-1.0200000000
-1.0100000000
-1.0100000000
-1.0200000000
-1.0200000000
-1.0100000000
-1.0100000000
-1.0050000000
-1.0150000000
-1.0150000000
-1.0100000000
-1.0000000000
-0.9950000000
-1.0050000000
-1.0100000000
-1.0050000000
-0.9850000000
-0.9750000000
-0.9850000000
-0.9850000000
-0.9800000000
-0.9650000000
-0.9650000000
-0.9650000000
-0.9600000000
-0.9700000000
-0.9750000000
-0.9750000000
-0.9550000000
-0.9750000000
-0.9700000000
-0.9500000000
-0.9500000000
-0.9550000000
-0.9650000000
-0.9450000000
-0.9400000000
-0.9400000000
-0.9400000000
-0.9300000000
-0.9300000000
-0.9500000000
-0.9450000000
-0.9400000000
-0.9300000000
-0.9250000000
-0.9250000000
-0.9350000000
-0.9250000000
-0.9200000000
-0.9150000000
-0.8950000000
-0.9000000000
-0.9050000000
-0.9050000000
-0.9050000000
-0.9000000000
-0.8950000000
-0.9000000000
-0.9000000000
-0.8950000000
-0.8950000000
-0.8800000000
-0.8800000000
-0.8900000000
-0.8750000000
-0.8700000000
-0.8600000000
-0.8750000000
-0.8750000000
-0.8700000000
-0.8650000000
-0.8600000000
-0.8600000000
-0.8650000000
-0.8400000000
-0.8450000000
-0.8550000000
-0.8450000000
-0.8350000000
-0.8300000000
-0.8350000000
-0.8350000000
-0.8250000000
-0.8250000000
-0.8150000000
-0.8100000000
-0.8050000000
-0.8100000000
-0.8150000000
-0.8250000000
-0.8250000000
-0.8200000000
-0.8200000000
-0.8050000000
-0.8150000000
-0.8250000000
-0.8100000000
-0.8050000000
-0.7950000000
-0.8050000000
-0.8050000000
-0.8000000000
-0.7900000000
-0.7900000000
-0.7850000000
-0.7750000000
-0.7750000000
-0.7750000000
-0.7750000000
-0.7750000000
-0.7500000000
-0.7450000000
-0.7650000000
-0.7600000000
-0.7500000000
-0.7400000000
-0.7450000000
-0.7400000000
-0.7200000000
-0.7200000000
-0.7200000000
-0.7200000000
-0.7100000000
-0.7100000000
-0.7150000000
-0.7200000000
-0.7200000000
-0.7150000000
-0.7100000000
-0.7100000000
-0.7050000000
-0.6950000000
-0.6950000000
-0.6950000000
-0.6900000000
-0.6900000000
-0.6850000000
-0.6750000000
-0.6800000000
-0.6600000000
-0.6600000000
-0.6700000000
-0.6750000000
-0.6800000000
-0.6750000000
-0.6800000000
-0.6500000000
-0.6550000000
-0.6650000000
-0.6500000000
-0.6450000000
-0.6350000000
-0.6350000000
-0.6300000000
-0.6300000000
-0.6150000000
-0.6100000000
-0.6150000000
-0.6100000000
-0.6100000000
-0.6050000000
-0.5950000000
-0.5900000000
-0.5850000000
-0.5850000000
-0.5850000000
-0.5800000000
-0.5800000000
-0.6050000000
-0.5900000000
-0.5800000000
-0.5900000000
-0.5850000000
-0.5750000000
-0.5750000000
-0.5500000000
-0.5500000000
-0.5550000000
-0.5500000000
-0.5400000000
-0.5350000000
-0.5350000000
-0.5250000000
-0.5300000000
-0.5200000000
-0.5200000000
-0.5200000000
-0.5200000000
-0.5200000000
-0.5200000000
-0.5100000000
-0.5050000000
-0.5000000000
-0.5050000000
-0.5050000000
-0.5050000000
-0.5050000000
-0.4950000000
-0.4950000000
-0.4900000000
-0.4900000000
-0.4950000000
-0.4900000000
-0.4750000000
-0.4750000000
-0.4850000000
-0.4850000000
-0.4600000000
-0.4500000000
-0.4500000000
-0.4650000000
-0.4600000000
-0.4500000000
-0.4450000000
-0.4450000000
-0.4400000000
-0.4350000000
-0.4350000000
-0.4350000000
-0.4350000000
-0.4200000000
-0.4050000000
-0.4150000000
-0.4450000000
-0.4450000000
-0.4350000000
-0.4100000000
-0.4000000000
-0.3950000000
-0.4000000000
-0.3900000000
-0.3950000000
-0.4000000000
-0.4050000000
-0.4000000000
-0.4000000000
-0.4000000000
-0.3800000000
-0.3750000000
-0.3700000000
-0.3650000000
-0.3800000000
-0.3850000000
-0.3700000000
-0.3500000000
-0.3400000000
-0.3350000000
-0.3600000000
-0.3650000000
-0.3550000000
-0.3550000000
-0.3400000000
-0.3300000000
-0.3300000000
-0.3350000000
-0.3350000000
-0.3100000000
-0.3050000000
-0.3050000000
-0.3150000000
-0.3150000000
-0.3150000000
-0.3100000000
-0.3050000000
-0.3050000000
-0.3150000000
-0.3200000000
-0.3100000000
-0.3000000000
-0.2950000000
-0.2850000000
-0.2900000000
-0.3000000000
-0.2800000000
-0.2700000000
-0.2650000000
-0.2800000000
-0.2750000000
-0.2650000000
-0.2650000000
-0.2800000000
-0.2850000000
-0.2950000000
-0.2850000000
-0.2600000000
-0.2400000000
-0.2450000000
-0.2650000000
-0.2750000000
-0.2750000000
-0.2500000000
-0.2400000000
-0.2450000000
-0.2400000000
-0.2250000000
-0.2100000000
-0.2100000000
-0.2100000000
-0.2200000000
-0.2250000000
-0.2250000000
-0.2150000000
-0.2150000000
-0.2150000000
-0.2150000000
-0.2250000000
-0.2200000000
-0.2150000000
-0.2200000000
-0.2100000000
-0.2000000000
-0.1950000000
-0.2000000000
-0.2000000000
-0.1900000000
-0.1800000000
-0.1800000000
-0.1850000000
-0.2000000000
-0.1950000000
-0.1900000000
-0.1800000000
-0.1650000000
-0.1650000000
-0.1800000000
-0.1750000000
-0.1850000000
-0.1700000000
-0.1500000000
-0.1700000000
-0.1700000000
-0.1500000000
-0.1500000000
-0.1450000000
-0.1350000000
-0.1450000000
-0.1350000000
-0.1300000000
-0.1500000000
-0.1500000000
-0.1400000000
-0.1300000000
-0.1500000000
-0.1500000000
-0.1350000000
-0.1350000000
-0.1250000000
-0.1150000000
-0.1250000000
-0.1350000000
-0.1400000000
-0.1350000000
-0.1300000000
-0.1150000000
-0.1000000000
-0.1200000000
-0.1200000000
-0.1100000000
-0.1000000000
-0.0950000000
-0.1000000000
-0.0950000000
-0.0850000000
-0.0900000000
-0.1000000000
-0.0950000000
-0.0900000000
-0.0850000000
-0.0850000000
-0.0700000000
-0.0650000000
-0.0900000000
-0.0950000000
-0.0950000000
-0.0900000000
-0.0850000000
-0.0850000000
-0.1000000000
-0.0850000000
-0.0800000000
-0.0850000000
-0.0750000000
-0.0600000000
-0.0450000000
-0.0450000000
-0.0350000000
-0.0450000000
-0.0750000000
-0.0750000000
-0.0750000000
-0.0600000000
-0.0600000000
-0.0650000000
-0.0650000000
-0.0650000000
-0.0600000000
-0.0500000000
-0.0550000000
-0.0300000000
-0.0350000000
-0.0400000000
-0.0400000000
-0.0400000000
-0.0300000000
-0.0300000000
-0.0400000000
-0.0500000000
-0.0500000000
-0.0500000000
-0.0500000000
-0.0400000000
-0.0500000000
-0.0550000000
-0.0450000000
-0.0550000000
-0.0450000000
-0.0250000000
-0.0250000000
-0.0200000000
-0.0250000000
-0.0450000000
-0.0450000000
-0.0350000000
-0.0200000000
-0.0200000000
-0.0200000000
-0.0150000000
-0.0200000000
-0.0250000000
-0.0300000000
-0.0250000000
-0.0200000000
-0.0200000000
-0.0200000000
-0.0050000000
-0.0100000000
-0.0100000000
-0.0100000000
-0.0050000000
0.0050000000
-0.0100000000
0.0000000000
0.0200000000
0.0150000000
0.0100000000
0.0150000000
0.0100000000
-0.0100000000
-0.0200000000
-0.0200000000
-0.0100000000
-0.0050000000
-0.0050000000
-0.0050000000
0.0000000000
0.0050000000
0.0050000000
0.0100000000
0.0150000000
0.0300000000
0.0200000000
0.0100000000
0.0000000000
0.0150000000
0.0200000000
0.0200000000
0.0150000000
0.0100000000
0.0050000000
0.0050000000
0.0100000000
0.0150000000
0.0300000000
0.0450000000
0.0400000000
0.0200000000
0.0250000000
0.0350000000
0.0400000000
0.0400000000
0.0250000000
0.0200000000
0.0350000000
0.0400000000
0.0450000000
0.0400000000
0.0500000000
0.0550000000
0.0500000000
0.0550000000
0.0700000000
0.0750000000
0.0650000000
0.0650000000
0.0600000000
0.0500000000
0.0500000000
0.0550000000
0.0500000000
0.0550000000
0.0650000000
0.0750000000
0.0750000000
0.0750000000
0.0800000000
0.0850000000
0.0650000000
0.0650000000
0.0750000000
0.0800000000
0.0900000000
0.1000000000
0.0800000000
0.0750000000
0.0700000000
0.0750000000
0.0800000000
0.0800000000
0.0950000000
0.0950000000
0.1000000000
0.0950000000
0.1100000000
0.1100000000
0.1000000000
0.1000000000
0.1050000000
0.1150000000
0.1150000000
0.1150000000
0.1100000000
0.1050000000
0.1050000000
0.1050000000
0.1000000000
0.1000000000
0.1000000000
0.1000000000
0.1050000000
0.1100000000
0.1050000000
0.1050000000
0.1000000000
0.0950000000
0.1050000000
0.1150000000
0.1200000000
0.1200000000
0.1100000000
0.1050000000
0.1050000000
0.1050000000
0.1150000000
0.1250000000
0.1200000000
0.1200000000
0.1250000000
0.1350000000
0.1300000000
0.1200000000
0.1100000000
0.1150000000
0.1200000000
0.1300000000
0.1250000000
0.1200000000
0.1200000000
0.1250000000
0.1250000000
0.1200000000
0.1250000000
0.1400000000
0.1450000000
0.1450000000
0.1350000000
0.1400000000
0.1500000000
0.1500000000
0.1350000000
0.1250000000
0.1450000000
0.1600000000
0.1650000000
0.1600000000
0.1500000000
0.1450000000
0.1450000000
0.1500000000
0.1600000000
0.1650000000
0.1750000000
0.1700000000
0.1650000000
0.1600000000
0.1750000000
0.1750000000
0.1700000000
0.1750000000
0.1800000000
0.1850000000
0.1950000000
0.2000000000
0.2000000000
0.1900000000
0.1900000000
0.1900000000
0.1850000000
0.1900000000
0.2000000000
0.2050000000
0.2050000000
0.2000000000
0.1950000000
0.1950000000
0.1900000000
0.1900000000
0.2100000000
0.2000000000
0.2000000000
0.2100000000
0.2150000000
0.2200000000
0.2300000000
0.2300000000
0.2400000000
0.2450000000
0.2250000000
0.2250000000
0.2200000000
0.2200000000
0.2200000000
0.2300000000
0.2400000000
0.2200000000
0.2250000000
0.2350000000
0.2400000000
0.2400000000
0.2350000000
0.2400000000
0.2550000000
0.2650000000
0.2650000000
0.2550000000
0.2600000000
0.2700000000
0.2650000000
0.2600000000
0.2600000000
0.2550000000
0.2750000000
0.2700000000
0.2600000000
0.2700000000
0.2750000000
0.2850000000
0.2900000000
0.2850000000
0.2800000000
0.2700000000
0.2800000000
0.2950000000
0.2950000000
0.2950000000
0.3000000000
0.2950000000
0.2950000000
0.3050000000
0.3100000000
0.3100000000
0.3100000000
0.3100000000
0.3050000000
0.3100000000
0.3150000000
0.3200000000
0.3100000000
0.3050000000
0.2950000000
0.3150000000
0.3200000000
0.3200000000
0.3150000000
0.3100000000
0.3100000000
0.3100000000
0.3200000000
0.3150000000
0.3250000000
0.3250000000
0.3300000000
0.3300000000
0.3150000000
0.3100000000
0.3150000000
0.3150000000
0.3250000000
0.3400000000
0.3550000000
0.3450000000
0.3300000000
0.3150000000
0.3150000000
0.3200000000
0.3300000000
0.3300000000
0.3400000000
0.3550000000
0.3550000000
0.3450000000
0.3450000000
0.3600000000
0.3600000000
0.3550000000
0.3400000000
0.3500000000
0.3550000000
0.3500000000
0.3550000000
0.3600000000
0.3600000000
0.3600000000
0.3550000000
0.3600000000
0.3600000000
0.3600000000
0.3650000000
0.3800000000
0.3800000000
0.3850000000
0.3800000000
0.3800000000
0.3750000000
0.3700000000
0.3800000000
0.3900000000
0.3900000000
0.3800000000
0.3750000000
0.3700000000
0.3750000000
0.3800000000
0.3850000000
0.3850000000
0.3850000000
0.3900000000
0.3850000000
0.3900000000
0.3900000000
0.3950000000
0.4000000000
0.4050000000
0.4050000000
0.3950000000
0.3850000000
0.3850000000
0.3900000000
0.3900000000
0.3950000000
0.3900000000
0.4000000000
0.4000000000
0.4000000000
0.4000000000
0.4000000000
0.4100000000
0.4150000000
0.4200000000
0.4150000000
0.4100000000
0.4000000000
0.4100000000
0.4150000000
0.4250000000
0.4300000000
0.4300000000
0.4250000000
0.4250000000
0.4100000000
0.4000000000
0.4150000000
0.4200000000
0.4150000000
0.4100000000
0.4250000000
0.4350000000
0.4250000000
0.4250000000
0.4250000000
0.4350000000
0.4350000000
0.4300000000
0.4250000000
0.4250000000
0.4350000000
0.4300000000
0.4350000000
0.4350000000
0.4400000000
0.4400000000
0.4300000000
0.4250000000
0.4250000000
0.4300000000
0.4300000000
0.4300000000
0.4400000000
0.4300000000
0.4250000000
0.4300000000
0.4300000000
0.4300000000
0.4400000000
0.4350000000
0.4300000000
0.4350000000
0.4600000000
0.4700000000
0.4750000000
0.4650000000
0.4600000000
0.4550000000
0.4650000000
0.4600000000
0.4600000000
0.4700000000
0.4700000000
0.4700000000
0.4650000000
0.4650000000
0.4600000000
0.4600000000
0.4500000000
0.4650000000
0.4700000000
0.4550000000
0.4550000000
0.4600000000
0.4650000000
0.4550000000
0.4500000000
0.4550000000
0.4550000000
0.4600000000
0.4700000000
0.4800000000
0.4850000000
0.4750000000
0.4550000000
0.4600000000
0.4600000000
0.4550000000
0.4550000000
0.4600000000
0.4650000000
0.4650000000
0.4700000000
0.4800000000
0.4900000000
0.4750000000
0.4800000000
0.4900000000
0.4850000000
0.4800000000
0.4800000000
0.4800000000
0.4700000000
0.4800000000
0.4900000000
0.4900000000
0.4850000000
0.4850000000
0.4800000000
0.4800000000
0.4850000000
0.4850000000
0.4900000000
0.4850000000
0.4850000000
0.4850000000
0.4850000000
0.4950000000
0.4950000000
0.5000000000
0.5100000000
0.5000000000
0.4900000000
0.4850000000
0.4750000000
0.4950000000
0.5100000000
0.5200000000
0.5050000000
0.4950000000
0.4950000000
0.5100000000
0.5050000000
0.4900000000
0.5000000000
0.5050000000
0.5050000000
0.5050000000
0.5100000000
0.5050000000
0.5100000000
0.5000000000
0.5050000000
0.5250000000
0.5200000000
0.5050000000
0.5000000000
0.5250000000
0.5300000000
0.5300000000
0.5250000000
0.5200000000
0.5200000000
0.5350000000
0.5400000000
0.5450000000
0.5500000000
0.5550000000
0.5500000000
0.5350000000
0.5450000000
0.5600000000
0.5650000000
0.5700000000
0.5750000000
0.5800000000
0.5800000000
0.5800000000
0.5800000000
0.5800000000
0.5650000000
0.5650000000
0.5700000000
0.5700000000
0.5650000000
0.5600000000
0.5700000000
0.5650000000
0.5600000000
0.5650000000
0.5650000000
0.5650000000
0.5650000000
0.5650000000
0.5600000000
0.5700000000
0.5850000000
0.5850000000
0.5850000000
0.5750000000
0.5750000000
0.5700000000
0.5750000000
0.5850000000
0.5850000000
0.5700000000
0.5600000000
0.5600000000
0.5700000000
0.5800000000
0.5800000000
0.5750000000
0.5650000000
0.5900000000
0.5950000000
0.5900000000
0.5950000000
0.5950000000
0.5850000000
0.5850000000
0.5950000000
0.5950000000
0.6050000000
0.6050000000
0.6100000000
0.6200000000
0.6150000000
0.6100000000
0.6050000000
0.6150000000
0.6150000000
0.6100000000
0.6250000000
0.6200000000
0.6200000000
0.6300000000
0.6300000000
0.6200000000
0.6050000000
0.6100000000
0.6150000000
0.6150000000
0.6300000000
0.6350000000
0.6350000000
0.6250000000
0.6200000000
0.6200000000
0.6300000000
0.6300000000
0.6300000000
0.6350000000
0.6350000000
0.6300000000
0.6250000000
0.6250000000
0.6300000000
0.6400000000
0.6600000000
0.6650000000
0.6600000000
0.6400000000
0.6400000000
0.6450000000
0.6500000000
0.6500000000
0.6550000000
0.6600000000
0.6600000000
0.6500000000
0.6500000000
0.6650000000
0.6600000000
0.6600000000
0.6700000000
0.6700000000
0.6650000000
0.6650000000
0.6700000000
0.6600000000
0.6600000000
0.6850000000
0.6800000000
0.6750000000
0.6700000000
0.6900000000
0.6950000000
0.7000000000
0.7000000000
0.6950000000
0.6950000000
0.6950000000
0.6750000000
0.6700000000
0.6800000000
0.6900000000
0.7000000000
0.7100000000
0.7100000000
0.7000000000
0.6900000000
0.6900000000
0.6900000000
0.6850000000
0.6900000000
0.6950000000
0.7050000000
0.7150000000
0.7100000000
0.7000000000
0.6900000000
0.6900000000
0.6900000000
0.6950000000
0.6850000000
0.6800000000
0.6850000000
0.6800000000
0.7000000000
0.7100000000
0.7150000000
0.7050000000
0.7050000000
0.7150000000
0.7050000000
0.6900000000
0.6900000000
0.6800000000
0.7150000000
0.7100000000
0.7150000000
0.7000000000
0.6950000000
0.6900000000
0.7100000000
0.7150000000
0.7150000000
0.7300000000
0.7200000000
0.7100000000
0.7200000000
0.7200000000
0.7150000000
0.7050000000
0.7150000000
0.7150000000
0.7100000000
0.7100000000
0.7100000000
0.7050000000
0.7050000000
0.7050000000
0.7100000000
0.7150000000
0.7100000000
0.7050000000
0.6950000000
0.7150000000
0.7250000000
0.7350000000
0.7200000000
0.7100000000
0.7050000000
0.7050000000
0.7000000000
0.7100000000
0.7200000000
0.7150000000
0.7050000000
0.6900000000
0.6950000000
0.7050000000
0.7100000000
0.7200000000
0.7250000000
0.7200000000
0.7250000000
0.7250000000
0.7200000000
0.7300000000
0.7300000000
0.7300000000
0.7250000000
0.7350000000
0.7400000000
0.7350000000
0.7350000000
0.7350000000
0.7350000000
0.7350000000
0.7250000000
0.7200000000
0.7200000000
0.7200000000
0.7250000000
0.7300000000
0.7200000000
0.7200000000
0.7300000000
0.7300000000
0.7300000000
0.7350000000
0.7500000000
0.7300000000
0.7250000000
0.7400000000
0.7400000000
0.7250000000
0.7200000000
0.7300000000
0.7300000000
0.7250000000
0.7250000000
0.7100000000
0.7000000000
0.7050000000
0.7100000000
0.7150000000
0.7200000000
0.7200000000
0.7250000000
0.7150000000
0.6950000000
0.7050000000
0.7200000000
0.7300000000
0.7300000000
0.7250000000
0.7200000000
0.7150000000
0.7150000000
0.7250000000
0.7250000000
0.7150000000
0.7100000000
0.7100000000
0.7200000000
0.7200000000
0.7100000000
0.7100000000
0.7050000000
0.7050000000
0.7050000000
0.7050000000
0.7000000000
0.7000000000
0.7050000000
0.7050000000
0.7100000000
0.7100000000
0.7050000000
0.7050000000
0.7050000000
0.7100000000
0.7150000000
0.7150000000
0.7050000000
0.7000000000
0.7100000000
0.7150000000
0.7150000000
0.7050000000
0.7050000000
0.7000000000
0.7000000000
0.7050000000
0.7050000000
0.6950000000
0.7000000000
0.7000000000
0.6950000000
0.6950000000
0.7000000000
0.6900000000
0.6800000000
0.6950000000
0.7000000000
0.6950000000
0.6950000000
0.7000000000
0.7050000000
0.7050000000
0.6900000000
0.6850000000
0.7000000000
0.7100000000
0.7050000000
0.6850000000
0.6900000000
0.6950000000
0.7000000000
0.7000000000
0.7000000000
0.7050000000
0.7050000000
0.6850000000
0.6700000000
0.6750000000
0.6900000000
0.6950000000
0.6900000000
0.6900000000
0.6900000000
0.6800000000
0.6800000000
0.6750000000
0.6800000000
0.6800000000
0.6850000000
0.6800000000
0.6900000000
0.6750000000
0.6800000000
0.7000000000
0.7000000000
0.6850000000
0.6700000000
0.6700000000
0.6700000000
0.6800000000
0.6950000000
0.6800000000
0.6750000000
0.6800000000
0.6800000000
0.6750000000
0.6750000000
0.6700000000
0.6750000000
0.6850000000
0.6800000000
0.6750000000
0.6700000000
0.6800000000
0.6800000000
0.6800000000
0.6700000000
0.6650000000
0.6600000000
0.6650000000
0.6700000000
0.6700000000
0.6650000000
0.6600000000
0.6750000000
0.6700000000
0.6750000000
0.6750000000
0.6750000000
0.6750000000
0.6700000000
0.6700000000
0.6800000000
0.6800000000
0.6900000000
0.6950000000
0.6850000000
0.6850000000
0.6850000000
0.6850000000
0.6800000000
0.6700000000
0.6650000000
0.6800000000
0.6850000000
0.6800000000
0.6800000000
0.6750000000
0.6700000000
0.6800000000
0.6800000000
0.6750000000
0.6700000000
0.6700000000
0.6750000000
0.6850000000
0.6700000000
0.6700000000
0.6750000000
0.6750000000
0.6750000000
0.6750000000
0.6750000000
0.6650000000
0.6700000000
0.6900000000
0.6850000000
0.6800000000
0.6750000000
0.6850000000
0.6850000000
0.6800000000
0.6750000000
0.6700000000
0.6750000000
0.6850000000
0.6550000000
0.6550000000
0.6700000000
0.6700000000
0.6700000000
0.6650000000
0.6750000000
0.6800000000
0.6800000000
0.6900000000
0.6650000000
0.6600000000
0.6700000000
0.6750000000
0.6800000000
0.6800000000
0.6800000000
0.6800000000
0.6850000000
0.6850000000
0.6800000000
0.6700000000
0.6750000000
0.6800000000
0.6800000000
0.6650000000
0.6750000000
0.6800000000
0.6750000000
0.6850000000
0.6850000000
0.6750000000
0.6800000000
0.6800000000
0.6800000000
0.6750000000
0.6950000000
0.6950000000
0.6850000000
0.6750000000
0.6700000000
0.6750000000
0.6800000000
0.6850000000
0.6850000000
0.6850000000
0.6750000000
0.6700000000
0.6750000000
0.6750000000
0.6750000000
0.6750000000
0.6650000000
0.6750000000
0.6900000000
0.6900000000
0.6750000000
0.6800000000
0.6900000000
0.6850000000
0.6750000000
0.6650000000
0.6600000000
0.6550000000
0.6600000000
0.6700000000
0.6750000000
0.6650000000
0.6550000000
0.6650000000
0.6600000000
0.6450000000
0.6450000000
0.6500000000
0.6500000000
0.6500000000
0.6450000000
0.6450000000
0.6450000000
0.6350000000
0.6300000000
0.6400000000
0.6350000000
0.6300000000
0.6350000000
0.6350000000
0.6400000000
0.6450000000
0.6450000000
0.6400000000
0.6400000000
0.6400000000
0.6450000000
0.6400000000
0.6450000000
0.6450000000
0.6400000000
0.6450000000
0.6350000000
0.6300000000
0.6350000000
0.6350000000
0.6400000000
0.6450000000
0.6350000000
0.6350000000
0.6400000000
0.6500000000
0.6500000000
0.6550000000
0.6500000000
0.6450000000
0.6400000000
0.6350000000
0.6300000000
0.6250000000
0.6200000000
0.6250000000
0.6250000000
0.6250000000
0.6350000000
0.6200000000
0.6150000000
0.6150000000
0.6250000000
0.6350000000
0.6450000000
0.6450000000
0.6300000000
0.6250000000
0.6150000000
0.6150000000
0.6200000000
0.6300000000
0.6300000000
0.6250000000
0.6150000000
0.6150000000
0.6100000000
0.6050000000
0.6150000000
0.6150000000
0.6150000000
0.6050000000
0.5950000000
0.5950000000
0.6050000000
0.6000000000
0.6050000000
0.6150000000
0.6100000000
0.6050000000
0.6050000000
0.5950000000
0.5850000000
0.5800000000
0.5900000000
0.5850000000
0.5850000000
0.5900000000
0.6000000000
0.6100000000
0.6200000000
0.6200000000
0.5900000000
0.5850000000
0.5950000000
0.5900000000
0.5850000000
0.5950000000
0.5900000000
0.5750000000
0.5700000000
0.5800000000
0.5750000000
0.5650000000
0.5700000000
0.5700000000
0.5800000000
0.5950000000
0.5750000000
0.5700000000
0.5700000000
0.5650000000
0.5700000000
0.5800000000
0.5700000000
0.5650000000
0.5600000000
0.5500000000
0.5500000000
0.5500000000
0.5400000000
0.5450000000
0.5450000000
0.5350000000
0.5350000000
0.5400000000
0.5500000000
0.5500000000
0.5550000000
0.5600000000
0.5450000000
0.5450000000
0.5400000000
0.5450000000
0.5450000000
0.5400000000
0.5250000000
0.5150000000
0.5100000000
0.5100000000
0.5100000000
0.5100000000
0.5150000000
0.5100000000
0.5100000000
0.5200000000
0.5250000000
0.5200000000
0.5150000000
0.5150000000
0.5050000000
0.5000000000
0.5000000000
0.5150000000
0.5150000000
0.5100000000
0.5150000000
0.5150000000
0.5000000000
0.4850000000
0.4850000000
0.5000000000
0.5100000000
0.5100000000
0.5050000000
0.5100000000
0.5250000000
0.5300000000
0.5150000000
0.4900000000
0.5250000000
0.5300000000
0.5250000000
0.5250000000
0.5200000000
0.5100000000
0.5000000000
0.4950000000
0.4900000000
0.4900000000
0.4900000000
0.4950000000
0.5000000000
0.4950000000
0.4900000000
0.4900000000
0.4850000000
0.4800000000
0.4850000000
0.4800000000
0.4850000000
0.4900000000
0.4850000000
0.4950000000
0.4800000000
0.4650000000
0.4700000000
0.4750000000
0.4750000000
0.4750000000
0.4800000000
0.4750000000
0.4850000000
0.4850000000
0.4850000000
0.4700000000
0.4700000000
0.4650000000
0.4650000000
0.4650000000
0.4700000000
0.4700000000
0.4700000000
0.4600000000
0.4550000000
0.4550000000
0.4550000000
0.4550000000
0.4550000000
0.4550000000
0.4550000000
0.4550000000
0.4550000000
0.4550000000
0.4500000000
0.4450000000
0.4550000000
0.4550000000
0.4450000000
0.4450000000
0.4400000000
0.4450000000
0.4300000000
0.4350000000
0.4450000000
0.4450000000
0.4500000000
0.4550000000
0.4450000000
0.4450000000
0.4350000000
0.4150000000
0.4250000000
0.4400000000
0.4500000000
0.4500000000
0.4250000000
0.4100000000
0.4200000000
0.4250000000
0.4300000000
0.4200000000
0.4100000000
0.4050000000
0.4050000000
0.4150000000
0.4250000000
0.4300000000
0.4300000000
0.4300000000
0.4200000000
0.4100000000
0.4200000000
0.4200000000
0.4100000000
0.4100000000
0.4100000000
0.4000000000
0.4100000000
0.4150000000
0.4200000000
0.4200000000
0.4200000000
0.4200000000
0.4100000000
0.4200000000
0.4250000000
0.4350000000
0.4200000000
0.4100000000
0.4050000000
0.4050000000
0.4150000000
0.4200000000
0.4100000000
0.4050000000
0.4050000000
0.3950000000
0.3950000000
0.3950000000
0.4000000000
0.4200000000
0.4050000000
0.3850000000
0.3900000000
0.4050000000
0.4100000000
0.4000000000
0.4000000000
0.4000000000
0.4100000000
0.4100000000
0.4150000000
0.4150000000
0.3900000000
0.3850000000
0.3900000000
0.3900000000
0.4000000000
0.3950000000
0.4000000000
0.4000000000
0.3900000000
0.3800000000
0.3800000000
0.3850000000
0.3900000000
0.3850000000
0.3850000000
0.3950000000
0.4150000000
0.4050000000
0.3950000000
0.3800000000
0.3800000000
0.3900000000
0.3950000000
0.4050000000
0.4000000000
0.3900000000
0.3900000000
0.4050000000
0.4150000000
0.4050000000
0.4050000000
0.3950000000
0.3800000000
0.3800000000
0.3800000000
0.3850000000
0.3900000000
0.3900000000
0.3800000000
0.3800000000
0.3800000000
0.3850000000
0.3800000000
0.3800000000
0.3800000000
0.3700000000
0.3700000000
0.3700000000
0.3800000000
0.3750000000
0.3750000000
0.3650000000
0.3500000000
0.3500000000
0.3500000000
0.3550000000
0.3550000000
0.3550000000
0.3450000000
0.3450000000
0.3400000000
0.3350000000
0.3500000000
0.3550000000
0.3500000000
0.3400000000
0.3450000000
0.3500000000
0.3550000000
0.3550000000
0.3400000000
0.3300000000
0.3300000000
0.3350000000
0.3350000000
0.3400000000
0.3300000000
0.3450000000
0.3350000000
0.3350000000
0.3300000000
0.3350000000
0.3300000000
0.3300000000
0.3200000000
0.3250000000
0.3150000000
0.3050000000
0.3050000000
0.3050000000
0.3100000000
0.3250000000
0.3150000000
0.3100000000
0.3100000000
0.3150000000
0.3150000000
0.3050000000
0.3050000000
0.2950000000
0.2950000000
0.3100000000
0.2950000000
0.2950000000
0.3050000000
0.2950000000
0.2800000000
0.2700000000
0.2850000000
0.2950000000
0.2950000000
0.3000000000
0.2800000000
0.2850000000
0.2950000000
0.2850000000
0.2750000000
0.2750000000
0.2700000000
0.2650000000
0.2650000000
0.2750000000
0.2750000000
0.2750000000
0.2950000000
0.2900000000
0.2800000000
0.2650000000
0.2650000000
0.2550000000
0.2450000000
0.2450000000
0.2500000000
0.2550000000
0.2550000000
0.2400000000
0.2250000000
0.2300000000
0.2350000000
0.2400000000
0.2400000000
0.2400000000
0.2350000000
0.2350000000
0.2350000000
0.2350000000
0.2350000000
0.2350000000
0.2350000000
0.2300000000
0.2300000000
0.2200000000
0.2150000000
0.2200000000
0.2200000000
0.2200000000
0.2100000000
0.1950000000
0.1900000000
0.1900000000
0.1950000000
0.1850000000
0.1800000000
0.1900000000
0.1850000000
0.1750000000
0.1650000000
0.1700000000
0.1700000000
0.1650000000
0.1750000000
0.1800000000
0.1750000000
0.1550000000
0.1450000000
0.1400000000
0.1450000000
0.1450000000
0.1500000000
0.1450000000
0.1400000000
0.1300000000
0.1250000000
0.1250000000
0.1450000000
0.1550000000
0.1450000000
0.1300000000
0.1200000000
0.1200000000
0.1050000000
0.1000000000
0.1000000000
0.1000000000
0.1050000000
0.1150000000
0.1150000000
0.0950000000
0.0850000000
0.0950000000
0.0850000000
0.0700000000
0.0600000000
0.0750000000
0.0800000000
0.0750000000
0.0650000000
0.0650000000
0.0700000000
0.0650000000
0.0550000000
0.0500000000
0.0500000000
0.0350000000
0.0350000000
0.0400000000
0.0400000000
0.0400000000
0.0300000000
0.0300000000
0.0200000000
0.0200000000
0.0000000000
-0.0150000000
-0.0150000000
-0.0050000000
-0.0050000000
0.0050000000
0.0100000000
-0.0150000000
-0.0150000000
-0.0100000000
-0.0200000000
-0.0400000000
-0.0450000000
-0.0300000000
-0.0350000000
-0.0400000000
-0.0400000000
-0.0400000000
-0.0350000000
-0.0350000000
-0.0550000000
-0.0400000000
-0.0350000000
-0.0500000000
-0.0350000000
-0.0400000000
-0.0550000000
-0.0650000000
-0.0650000000
-0.0650000000
-0.0900000000
-0.0800000000
-0.0700000000
-0.0700000000
-0.0850000000
-0.0950000000
-0.1100000000
-0.1000000000
-0.0950000000
-0.0950000000
-0.1000000000
-0.1100000000
-0.1200000000
-0.1100000000
-0.1100000000
-0.1250000000
-0.1350000000
-0.1350000000
-0.1400000000
-0.1500000000
-0.1450000000
-0.1400000000
-0.1350000000
-0.1400000000
-0.1450000000
-0.1400000000
-0.1500000000
-0.1550000000
-0.1600000000
-0.1700000000
-0.1700000000
-0.1700000000
-0.1850000000
-0.1850000000
-0.1800000000
-0.1850000000
-0.1850000000
-0.1900000000
-0.1900000000
-0.1950000000
-0.1800000000
-0.1900000000
-0.2100000000
-0.2050000000
-0.2050000000
-0.2200000000
-0.2300000000
-0.2300000000
-0.2200000000
-0.2200000000
-0.2200000000
-0.2150000000
-0.2200000000
-0.2200000000
-0.2250000000
-0.2300000000
-0.2300000000
-0.2400000000
-0.2450000000
-0.2450000000
-0.2550000000
-0.2650000000
-0.2600000000
-0.2650000000
-0.2700000000
-0.2800000000
-0.2750000000
-0.2700000000
-0.2700000000
-0.2850000000
-0.2950000000
-0.3050000000
-0.3050000000
-0.2950000000
-0.2900000000
-0.2850000000
-0.3050000000
-0.3100000000
-0.3150000000
-0.3150000000
-0.3200000000
-0.3350000000
-0.3350000000
-0.3300000000
-0.3400000000
-0.3400000000
-0.3350000000
-0.3350000000
-0.3450000000
-0.3550000000
-0.3550000000
-0.3450000000
-0.3450000000
-0.3450000000
-0.3400000000
-0.3550000000
-0.3650000000
-0.3700000000
-0.3600000000
-0.3700000000
-0.3900000000
-0.4100000000
-0.3800000000
-0.3750000000
-0.3900000000
-0.3950000000
-0.3900000000
-0.3800000000
-0.4000000000
-0.4050000000
-0.4100000000
-0.4000000000
-0.4250000000
-0.4200000000
-0.4150000000
-0.4150000000
-0.4150000000
-0.4250000000
-0.4450000000
-0.4400000000
-0.4250000000
-0.4300000000
-0.4350000000
-0.4450000000
-0.4550000000
-0.4450000000
-0.4350000000
-0.4350000000
-0.4350000000
-0.4300000000
-0.4300000000
-0.4400000000
-0.4450000000
-0.4550000000
-0.4500000000
-0.4450000000
-0.4550000000
-0.4650000000
-0.4650000000
-0.4650000000
-0.4600000000
-0.4700000000
-0.4650000000
-0.4550000000
-0.4700000000
-0.4850000000
-0.4950000000
-0.4950000000
-0.4850000000
-0.4850000000
-0.4850000000
-0.4750000000
-0.4800000000
-0.4950000000
-0.4800000000
-0.4750000000
-0.4750000000
-0.4800000000
-0.5000000000
-0.5050000000
-0.4850000000
-0.4950000000
-0.5100000000
-0.5200000000
-0.5000000000
-0.4950000000
-0.5000000000
-0.5000000000
-0.5200000000
-0.5350000000
-0.5250000000
-0.5200000000
-0.5350000000
-0.5550000000
-0.5550000000
-0.5550000000
-0.5550000000
-0.5250000000
-0.5200000000
-0.5250000000
-0.5250000000
-0.5350000000
-0.5450000000
-0.5450000000
-0.5700000000
-0.5750000000
-0.5650000000
-0.5600000000
-0.5550000000
-0.5500000000
-0.5600000000
-0.5650000000
-0.5650000000
-0.5700000000
-0.5750000000
-0.5750000000
-0.5800000000
-0.5700000000
-0.5700000000
-0.5800000000
-0.5800000000
-0.5850000000
-0.5950000000
-0.5950000000
-0.5900000000
-0.5800000000
-0.5800000000
-0.5750000000
-0.5800000000
-0.5950000000
-0.5900000000
-0.5850000000
-0.5800000000
-0.5700000000
-0.5850000000
-0.6050000000
-0.6000000000
-0.5900000000
-0.5850000000
-0.5900000000
-0.5900000000
-0.5850000000
-0.5850000000
-0.5900000000
-0.6150000000
-0.6400000000
-0.6400000000
-0.6200000000
-0.6000000000
-0.6000000000
-0.6100000000
-0.6200000000
-0.6150000000
-0.6250000000
-0.6250000000
-0.6150000000
-0.6200000000
-0.6350000000
-0.6450000000
-0.6350000000
-0.6300000000
-0.6300000000
-0.6250000000
-0.6250000000
-0.6350000000
-0.6500000000
-0.6500000000
-0.6450000000
-0.6300000000
-0.6350000000
-0.6450000000
-0.6550000000
-0.6450000000
-0.6350000000
-0.6300000000
-0.6300000000
-0.6400000000
-0.6500000000
-0.6600000000
-0.6650000000
-0.6650000000
-0.6550000000
-0.6650000000
-0.6650000000
-0.6550000000
-0.6550000000
-0.6550000000
-0.6600000000
-0.6600000000
-0.6450000000
-0.6300000000
-0.6250000000
-0.6550000000
-0.6650000000
-0.6650000000
-0.6850000000
-0.6900000000
-0.6900000000
-0.6900000000
-0.6900000000
-0.6950000000
-0.7000000000
-0.6950000000
-0.6900000000
-0.6800000000
-0.6900000000
-0.6900000000
-0.6850000000
-0.6700000000
-0.6700000000
-0.6850000000
-0.6800000000
-0.7050000000
-0.7050000000
-0.6950000000
-0.6950000000
-0.6950000000
-0.7050000000
-0.7050000000
-0.7000000000
-0.6900000000
-0.7000000000
-0.7100000000
-0.7150000000
-0.7050000000
-0.7050000000
-0.7100000000
-0.7250000000
-0.7250000000
-0.7200000000
-0.7200000000
-0.7250000000
-0.7200000000
-0.7050000000
-0.7050000000
-0.7200000000
-0.7300000000
-0.7250000000
-0.7300000000
-0.7400000000
-0.7550000000
-0.7550000000
-0.7450000000
-0.7250000000
-0.7250000000
-0.7250000000
-0.7350000000
-0.7350000000
-0.7200000000
-0.7250000000
-0.7200000000
-0.7200000000
-0.7150000000
-0.7100000000
-0.7250000000
-0.7300000000
-0.7300000000
-0.7550000000
-0.7550000000
-0.7450000000
-0.7250000000
-0.7400000000
-0.7550000000
-0.7700000000
-0.7650000000
-0.7500000000
-0.7350000000
-0.7400000000
-0.7450000000
-0.7500000000
-0.7500000000
-0.7450000000
-0.7450000000
-0.7350000000
-0.7350000000
-0.7350000000
-0.7400000000
-0.7300000000
-0.7300000000
-0.7400000000
-0.7400000000
-0.7400000000
-0.7350000000
-0.7400000000
-0.7300000000
-0.7400000000
-0.7350000000
-0.7350000000
-0.7300000000
-0.7150000000
-0.7150000000
-0.7200000000
-0.7350000000
-0.7250000000
-0.7250000000
-0.7300000000
-0.7350000000
-0.7350000000
-0.7300000000
-0.7300000000
-0.7050000000
-0.7000000000
-0.7100000000
-0.7250000000
-0.7250000000
-0.7200000000
-0.7200000000
-0.7250000000
-0.7200000000
-0.7250000000
-0.7150000000
-0.7250000000
-0.7500000000
-0.7350000000
-0.7300000000
-0.7300000000
-0.7300000000
-0.7250000000
-0.7250000000
-0.7250000000
-0.7250000000
-0.7300000000
-0.7200000000
-0.7200000000
-0.7200000000
-0.7350000000
-0.7200000000
-0.7150000000
-0.7200000000
-0.7200000000
-0.7300000000
-0.7400000000
-0.7400000000
-0.7300000000
-0.7250000000
-0.7150000000
-0.7150000000
-0.7300000000
-0.7400000000
-0.7350000000
-0.7200000000
-0.7050000000
-0.7150000000
-0.7300000000
-0.7350000000
-0.7300000000
-0.7150000000
-0.7050000000
-0.6950000000
-0.7050000000
-0.7100000000
-0.7150000000
-0.7200000000
-0.7250000000
-0.7200000000
-0.7200000000
-0.7050000000
-0.6900000000
-0.6800000000
-0.7000000000
-0.7100000000
-0.7200000000
-0.7200000000
-0.7150000000
-0.7100000000
-0.7100000000
-0.7100000000
-0.7100000000
-0.7000000000
-0.7000000000
-0.6950000000
-0.6900000000
-0.6900000000
-0.6950000000
-0.7050000000
-0.6950000000
-0.6950000000
-0.7050000000
-0.7050000000
-0.7000000000
-0.6950000000
-0.6950000000
-0.7050000000
-0.7100000000
-0.7050000000
-0.7200000000
-0.7150000000
-0.7050000000
-0.6950000000
-0.6850000000
-0.6800000000
-0.6800000000
-0.6800000000
-0.6800000000
-0.6900000000
-0.6850000000
-0.6850000000
-0.6950000000
-0.6750000000
-0.6800000000
-0.6900000000
-0.6800000000
-0.6750000000
-0.6800000000
-0.6750000000
-0.6700000000
-0.6650000000
-0.6650000000
-0.6600000000
-0.6650000000
-0.6800000000
-0.6650000000
-0.6600000000
-0.6550000000
-0.6550000000
-0.6700000000
-0.6700000000
-0.6500000000
-0.6550000000
-0.6550000000
-0.6450000000
-0.6500000000
-0.6550000000
-0.6500000000
-0.6350000000
-0.6300000000
-0.6450000000
-0.6350000000
-0.6650000000
-0.6450000000
-0.6200000000
-0.6350000000
-0.6450000000
-0.6500000000
-0.6500000000
-0.6500000000
-0.6450000000
-0.6450000000
-0.6400000000
-0.6350000000
-0.6300000000
-0.6200000000
-0.6150000000
-0.6200000000
-0.6350000000
-0.6400000000
-0.6450000000
-0.6250000000
-0.6150000000
-0.6050000000
-0.6050000000
-0.6000000000
-0.5950000000
-0.6000000000
-0.5850000000
-0.5950000000
-0.6150000000
-0.6100000000
-0.6100000000
-0.6150000000
-0.6050000000
-0.6000000000
-0.6000000000
-0.6000000000
-0.5900000000
-0.5850000000
-0.5650000000
-0.5650000000
-0.5700000000
-0.5650000000
-0.5650000000
-0.5600000000
-0.5550000000
-0.5600000000
-0.5600000000
-0.5500000000
-0.5450000000
-0.5450000000
-0.5500000000
-0.5650000000
-0.5550000000
-0.5500000000
-0.5550000000
-0.5550000000
-0.5350000000
-0.5150000000
-0.4950000000
-0.5050000000
-0.5150000000
-0.5150000000
-0.5300000000
-0.5400000000
-0.5300000000
-0.5200000000
-0.5150000000
-0.5200000000
-0.5100000000
-0.5000000000
-0.4950000000
-0.4950000000
-0.4950000000
-0.5000000000
-0.5150000000
-0.5150000000
-0.5050000000
-0.4850000000
-0.4850000000
-0.5000000000
-0.5100000000
-0.5100000000
-0.5100000000
-0.5000000000
-0.4650000000
-0.4750000000
-0.4900000000
-0.5000000000
-0.5000000000
-0.5100000000
-0.5200000000
-0.5200000000
-0.5100000000
-0.4950000000
-0.4950000000
-0.4700000000
-0.4600000000
-0.4800000000
-0.4800000000
-0.4850000000
-0.4800000000
-0.4800000000
-0.4800000000
-0.4800000000
-0.4500000000
-0.4500000000
-0.4550000000
-0.4550000000
-0.4500000000
-0.4450000000
-0.4300000000
-0.4450000000
-0.4500000000
-0.4500000000
-0.4400000000
-0.4350000000
-0.4400000000
-0.4400000000
-0.4400000000
-0.4350000000
-0.4350000000
-0.4350000000
-0.4400000000
-0.4350000000
-0.4350000000
-0.4350000000
-0.4350000000
-0.4350000000
-0.4450000000
-0.4500000000
-0.4350000000
-0.4150000000
-0.4000000000
-0.3800000000
-0.3950000000
-0.4050000000
-0.4200000000
-0.4150000000
-0.4000000000
-0.3800000000
-0.3650000000
-0.3700000000
-0.3800000000
-0.3800000000
-0.3950000000
-0.4150000000
-0.4350000000
-0.4250000000
-0.4200000000
-0.4150000000
-0.4100000000
-0.4000000000
-0.3900000000
-0.3800000000
-0.3750000000
-0.3850000000
-0.4000000000
-0.3700000000
-0.3550000000
-0.3600000000
-0.3700000000
-0.3700000000
-0.3600000000
-0.3650000000
-0.3700000000
-0.3750000000
-0.3700000000
-0.3600000000
-0.3500000000
-0.3350000000
-0.3550000000
-0.3550000000
-0.3450000000
-0.3700000000
-0.3800000000
-0.3750000000
-0.3600000000
-0.3400000000
-0.3300000000
-0.3250000000
-0.3350000000
-0.3250000000
-0.3300000000
-0.3300000000
-0.3300000000
-0.3250000000
-0.3450000000
-0.3600000000
-0.3650000000
-0.3450000000
-0.3200000000
-0.3050000000
-0.3000000000
-0.2950000000
-0.2900000000
-0.2900000000
-0.2800000000
-0.2800000000
-0.2850000000
-0.3000000000
-0.3150000000
-0.3250000000
-0.3250000000
-0.3250000000
-0.3150000000
-0.2950000000
-0.2600000000
-0.2400000000
-0.2300000000
-0.2450000000
-0.2850000000
-0.3200000000
-0.3200000000
-0.3150000000
-0.2900000000
-0.3050000000
-0.2800000000
-0.3000000000
-0.3150000000
-0.2950000000
-0.2700000000
-0.2450000000
-0.2550000000
-0.2650000000
-0.2850000000
-0.3250000000
-0.3350000000
-0.3350000000
-0.3200000000
-0.3050000000
-0.2850000000
-0.2700000000
-0.2500000000
-0.2450000000
-0.2500000000
-0.2850000000
-0.3000000000
-0.3100000000
-0.3000000000
-0.2850000000
-0.2750000000
-0.2650000000
-0.2650000000
-0.2750000000
-0.2950000000
-0.2850000000
-0.2800000000
-0.2800000000
-0.2950000000
-0.2950000000
-0.2900000000
-0.2900000000
-0.2700000000
-0.2700000000
-0.2900000000
-0.2800000000
-0.2700000000
-0.2600000000
-0.2600000000
-0.2450000000
-0.2350000000
-0.2350000000
-0.2300000000
-0.2300000000
-0.2500000000
-0.2650000000
-0.2600000000
-0.2350000000
-0.2200000000
-0.2300000000
-0.2450000000
-0.2600000000
-0.2600000000
-0.2550000000
-0.2700000000
-0.2750000000
-0.2600000000
-0.2300000000
-0.2100000000
-0.2150000000
-0.2350000000
-0.2350000000
-0.2350000000
-0.2300000000
-0.2250000000
-0.2350000000
-0.2500000000
-0.2500000000
-0.2500000000
-0.2400000000
-0.2200000000
-0.2350000000
-0.2350000000
-0.2200000000
-0.2200000000
-0.2150000000
-0.2150000000
-0.1950000000
-0.1850000000
-0.1850000000
-0.2150000000
-0.2250000000
-0.2250000000
-0.2100000000
-0.2000000000
-0.1900000000
-0.1850000000
-0.1850000000
-0.1800000000
-0.1900000000
-0.2000000000
-0.2050000000
-0.1900000000
-0.1650000000
-0.1700000000
-0.1850000000
-0.2050000000
-0.2000000000
-0.1900000000
-0.1850000000
-0.1900000000
-0.1600000000
-0.1350000000
-0.1300000000
-0.1700000000
-0.1750000000
-0.1700000000
-0.1900000000
-0.2050000000
-0.2150000000
-0.1900000000
-0.1400000000
-0.1100000000
-0.1200000000
-0.1300000000
-0.1550000000
-0.1950000000
-0.1700000000
-0.1450000000
-0.1200000000
-0.1200000000
-0.1050000000
-0.1000000000
-0.1150000000
-0.1250000000
-0.1350000000
-0.1350000000
-0.1100000000
-0.1050000000
-0.1250000000
-0.1600000000
-0.1650000000
-0.1500000000
-0.1250000000
-0.1100000000
-0.1050000000
-0.1200000000
-0.1200000000
-0.0950000000
-0.1100000000
-0.0600000000
-0.0650000000
-0.0700000000
-0.1050000000
-0.1150000000
-0.1200000000
-0.0900000000
-0.0850000000
-0.0900000000
-0.0900000000
-0.0950000000
-0.1050000000
-0.1200000000
-0.1250000000
-0.1150000000
-0.0900000000
-0.0750000000
-0.0700000000
-0.0650000000
-0.0850000000
-0.0800000000
-0.0700000000
-0.0650000000
-0.0600000000
-0.0550000000
-0.0700000000
-0.0500000000
-0.0300000000
-0.0150000000
-0.0400000000
-0.0700000000
-0.0900000000
-0.0550000000
-0.0550000000
-0.0550000000
-0.0600000000
-0.0500000000
-0.0600000000
-0.0600000000
-0.0350000000
-0.0200000000
-0.0100000000
-0.0200000000
-0.0300000000
-0.0350000000
-0.0400000000
-0.0450000000
-0.0500000000
-0.0550000000
-0.0550000000
-0.0550000000
-0.0650000000
-0.0550000000
-0.0100000000
0.0350000000
0.0300000000
0.0150000000
0.0000000000
0.0050000000
0.0000000000
-0.0050000000
0.0200000000
0.0200000000
0.0150000000
-0.0050000000
0.0000000000
-0.0100000000
-0.0250000000
-0.0250000000
0.0150000000
0.0650000000
0.0500000000
0.0850000000
0.0300000000
-0.0450000000
-0.0550000000
-0.0350000000
0.0000000000
-0.0050000000
-0.0250000000
-0.0300000000
0.0050000000
0.0250000000
0.0450000000
0.0750000000
0.0750000000
0.0700000000
0.0600000000
0.0300000000
-0.0150000000
-0.0500000000
-0.0150000000
-0.0050000000
0.0050000000
0.0100000000
0.0050000000
0.0150000000
0.0550000000
0.0550000000
0.0450000000
0.0350000000
0.0250000000
0.0300000000
0.0400000000
0.0400000000
0.0450000000
0.0450000000
0.0450000000
0.0800000000
0.1000000000
0.0950000000
0.0650000000
0.0600000000
0.0700000000
0.0700000000
0.0750000000
0.0850000000
0.0850000000
0.0700000000
0.0350000000
-0.0050000000
-0.0050000000
0.0200000000
0.0750000000
0.1050000000
0.1050000000
0.0900000000
0.0950000000
0.1050000000
0.1100000000
0.1150000000
0.1000000000
0.0700000000
0.0400000000
0.0400000000
0.0400000000
0.0350000000
0.0350000000
0.0700000000
0.0950000000
0.0500000000
0.0250000000
0.0150000000
0.0100000000
0.0400000000
0.0600000000
0.0900000000
0.0900000000
0.0900000000
0.0850000000
0.1100000000
0.0850000000
0.0500000000
0.0400000000
0.0700000000
0.0950000000
0.0950000000
0.0500000000
0.0300000000
0.0300000000
0.0300000000
0.0300000000
0.0300000000
0.0700000000
0.0700000000
0.0550000000
0.0300000000
-0.0050000000
-0.0250000000
-0.0300000000
0.0200000000
0.0450000000
0.0550000000
0.0100000000
0.0050000000
0.0150000000
0.0200000000
0.0350000000
0.0450000000
0.0450000000
0.0300000000
0.0450000000
0.0900000000
0.0900000000
0.0800000000
0.0700000000
0.0700000000
0.0300000000
-0.0050000000
0.0050000000
0.0100000000
0.0150000000
0.0350000000
0.0450000000
0.0550000000
0.0650000000
0.0400000000
0.0600000000
0.0950000000
0.1150000000
0.1200000000
0.1250000000
0.1100000000
0.0850000000
0.0700000000
0.0600000000
0.0300000000
0.0200000000
0.0250000000
0.0450000000
0.0500000000
0.0450000000
0.0450000000
0.0400000000
0.0400000000
0.0400000000
0.0550000000
0.0550000000
0.0350000000
0.0400000000
0.0350000000
0.0200000000
0.0100000000
0.0300000000
0.0550000000
0.0750000000
0.0650000000
0.0450000000
0.0250000000
0.0200000000
0.0400000000
0.0750000000
0.0600000000
0.0550000000
0.0450000000
0.0450000000
0.0500000000
0.0650000000
0.0750000000
0.1000000000
0.0900000000
0.0450000000
0.0250000000
0.0250000000
0.0400000000
0.0400000000
0.0400000000
0.0500000000
0.0650000000
0.0650000000
0.0550000000
0.0550000000
0.0650000000
0.0900000000
0.1050000000
0.0650000000
0.0400000000
0.0300000000
0.0500000000
0.0750000000
0.0900000000
0.0650000000
0.0400000000
0.0300000000
0.0500000000
0.0850000000
0.1100000000
0.1200000000
0.0950000000
0.0750000000
0.0650000000
0.0800000000
0.0850000000
0.0900000000
0.0850000000
0.0900000000
0.1100000000
0.1400000000
0.1100000000
0.0950000000
0.0850000000
0.0850000000
0.0850000000
0.0850000000
0.0850000000
0.1050000000
0.1200000000
0.1200000000
0.1300000000
0.1350000000
0.1350000000
0.1400000000
0.1400000000
0.1250000000
0.1200000000
0.1200000000
0.1250000000
0.1350000000
0.1400000000
0.1500000000
0.1700000000
0.1950000000
0.2050000000
0.2100000000
0.1950000000
0.1800000000
0.1650000000
0.1700000000
0.1800000000
0.1850000000
0.1750000000
0.1700000000
0.1750000000
0.1750000000
0.1700000000
0.1650000000
0.1700000000
0.1950000000
0.2050000000
0.2100000000
0.2000000000
0.2000000000
0.2050000000
0.2050000000
0.2000000000
0.2000000000
0.2200000000
0.2200000000
0.2200000000
0.2100000000
0.2050000000
0.1950000000
0.1900000000
0.1950000000
0.2000000000
0.2100000000
0.2200000000
0.2250000000
0.2300000000
0.2400000000
0.2550000000
0.2450000000
0.2250000000
0.2050000000
0.2150000000
0.2350000000
0.2500000000
0.2400000000
0.2350000000
0.2300000000
0.2000000000
0.2050000000
0.2300000000
0.2800000000
0.3050000000
0.3100000000
0.2650000000
0.2550000000
0.2600000000
0.2600000000
0.2700000000
0.2750000000
0.2650000000
0.2500000000
0.2400000000
0.2450000000
0.2700000000
0.2650000000
0.2450000000
0.2350000000
0.2500000000
0.2650000000
0.2750000000
0.3000000000
0.3050000000
0.2750000000
0.2450000000
0.2550000000
0.2900000000
0.3300000000
0.3300000000
0.3150000000
0.3000000000
0.2950000000
0.2850000000
0.2750000000
0.2750000000
0.2850000000
0.2950000000
0.2650000000
0.2700000000
0.2850000000
0.2850000000
0.2800000000
0.2750000000
0.2750000000
0.3000000000
0.2950000000
0.2600000000
0.2950000000
0.3050000000
0.3100000000
0.3000000000
0.3150000000
0.3350000000
0.3250000000
0.3350000000
0.3300000000
0.2900000000
0.2900000000
0.2850000000
0.2750000000
0.2950000000
0.3000000000
0.3000000000
0.3450000000
0.3350000000
0.3150000000
0.3150000000
0.3600000000
0.3750000000
0.3450000000
0.3450000000
0.3450000000
0.3500000000
0.3350000000
0.3300000000
0.3250000000
0.3150000000
0.3050000000
0.3000000000
0.2950000000
0.3250000000
0.3350000000
0.3550000000
0.3250000000
0.2950000000
0.2700000000
0.3250000000
0.3450000000
0.3400000000
0.3100000000
0.3100000000
0.3250000000
0.3350000000
0.3450000000
0.3500000000
0.3600000000
0.3300000000
0.3100000000
0.3050000000
0.3250000000
0.3300000000
0.3350000000
0.3350000000
0.3400000000
0.3500000000
0.3650000000
0.3450000000
0.3350000000
0.3450000000
0.3450000000
0.3250000000
0.3000000000
0.3100000000
0.3250000000
0.3350000000
0.3350000000
0.3550000000
0.3600000000
0.3650000000
0.3650000000
0.3450000000
0.3200000000
0.3250000000
0.3300000000
0.3300000000
0.3350000000
0.3350000000
0.3300000000
0.3250000000
0.3300000000
0.3300000000
0.3200000000
0.3400000000
0.3500000000
0.3450000000
0.3250000000
0.3250000000
0.3350000000
0.3500000000
0.3750000000
0.3800000000
0.3700000000
0.3600000000
0.3550000000
0.3450000000
0.3600000000
0.3600000000
0.3550000000
0.3550000000
0.3450000000
0.3450000000
0.3450000000
0.3350000000
0.3500000000
0.3750000000
0.3650000000
0.3500000000
0.3400000000
0.3600000000
0.3500000000
0.3400000000
0.3500000000
0.3500000000
0.3450000000
0.3550000000
0.3550000000
0.3500000000
0.3550000000
0.3750000000
0.3850000000
0.3850000000
0.3650000000
0.3550000000
0.3450000000
0.3500000000
0.3650000000
0.3700000000
0.3700000000
0.3900000000
0.3900000000
0.3700000000
0.3700000000
0.3900000000
0.4100000000
0.3950000000
0.3850000000
0.3750000000
0.3750000000
0.3600000000
0.3600000000
0.3700000000
0.3750000000
0.3800000000
0.3750000000
0.4000000000
0.4000000000
0.3900000000
0.3900000000
0.3900000000
0.3900000000
0.4000000000
0.4050000000
0.4000000000
0.3800000000
0.3900000000
0.4000000000
0.4100000000
0.4150000000
0.4200000000
0.4200000000
0.4100000000
0.4150000000
0.4250000000
0.4300000000
0.4200000000
0.4150000000
0.4050000000
0.4200000000
0.4250000000
0.4250000000
0.4150000000
0.4150000000
0.4250000000
0.4250000000
0.4350000000
0.4350000000
0.4250000000
0.4550000000
0.4400000000
0.4100000000
0.4300000000
0.4500000000
0.4550000000
0.4300000000
0.4300000000
0.4450000000
0.4550000000
0.4300000000
0.4200000000
0.4150000000
0.4450000000
0.4650000000
0.4750000000
0.4500000000
0.4450000000
0.4550000000
0.4800000000
0.4850000000
0.4700000000
0.4300000000
0.4400000000
0.4700000000
0.5100000000
0.4850000000
0.4750000000
0.4650000000
0.4700000000
0.4750000000
0.4650000000
0.4750000000
0.4300000000
0.4300000000
0.4450000000
0.4450000000
0.4700000000
0.5050000000
0.5050000000
0.4700000000
0.4500000000
0.4850000000
0.4900000000
0.5050000000
0.5250000000
0.5000000000
0.4800000000
0.4550000000
0.4850000000
0.4950000000
0.4850000000
0.4600000000
0.4650000000
0.4750000000
0.4700000000
0.4650000000
0.4800000000
0.5200000000
0.4750000000
0.4550000000
0.4550000000
0.5000000000
0.5050000000
0.5000000000
0.5150000000
0.5250000000
0.5350000000
0.5350000000
0.4900000000
0.4800000000
0.5000000000
0.5150000000
0.5050000000
0.4800000000
0.4700000000
0.4850000000
0.5050000000
0.5050000000
0.4950000000
0.4900000000
0.5000000000
0.4900000000
0.4900000000
0.5100000000
0.5100000000
0.5000000000
0.4750000000
0.4400000000
0.4350000000
0.4650000000
0.5400000000
0.5200000000
0.4950000000
0.4750000000
0.4900000000
0.4950000000
0.4900000000
0.5000000000
0.5000000000
0.4900000000
0.4650000000
0.4900000000
0.5150000000
0.5150000000
0.5100000000
0.5100000000
0.4900000000
0.4750000000
0.4700000000
0.4850000000
0.4850000000
0.4750000000
0.4550000000
0.4650000000
0.4450000000
0.4500000000
0.4950000000
0.5100000000
0.5200000000
0.5100000000
0.5250000000
0.5100000000
0.4850000000
0.4700000000
0.4850000000
0.5050000000
0.4950000000
0.4750000000
0.4800000000
0.5100000000
0.5350000000
0.5150000000
0.4750000000
0.4550000000
0.4550000000
0.4750000000
0.4950000000
0.4950000000
0.4900000000
0.4900000000
0.4900000000
0.4950000000
0.5050000000
0.4900000000
0.4950000000
0.5150000000
0.5100000000
0.5100000000
0.5300000000
0.5650000000
0.5450000000
0.5000000000
0.4400000000
0.4300000000
0.4550000000
0.5150000000
0.5150000000
0.4850000000
0.4550000000
0.4350000000
0.4600000000
0.4900000000
0.5150000000
0.4700000000
0.4350000000
0.4200000000
0.4650000000
0.5000000000
0.5200000000
0.5200000000
0.4900000000
0.4550000000
0.4550000000
0.4700000000
0.4850000000
0.4850000000
0.4400000000
0.3950000000
0.3600000000
0.3950000000
0.4150000000
0.4250000000
0.4100000000
0.4050000000
0.4150000000
0.4650000000
0.4250000000
0.3950000000
0.4000000000
0.4000000000
0.4100000000
0.4350000000
0.4350000000
0.4300000000
0.4250000000
0.4100000000
0.4050000000
0.4000000000
0.4000000000
0.4100000000
0.4200000000
0.4200000000
0.4000000000
0.3800000000
0.3600000000
0.3450000000
0.3500000000
0.3750000000
0.4100000000
0.4000000000
0.3600000000
0.3900000000
0.3150000000
0.3450000000
0.3700000000
0.3800000000
0.3700000000
0.3450000000
0.3250000000
0.3350000000
0.3650000000
0.3950000000
0.3750000000
0.3400000000
0.2950000000
0.2950000000
0.2950000000
0.3050000000
0.3100000000
0.3100000000
0.2950000000
0.2750000000
0.2600000000
0.2550000000
0.2650000000
0.2800000000
0.2850000000
0.2700000000
0.2550000000
0.2450000000
0.2550000000
0.2800000000
0.2700000000
0.2500000000
0.2500000000
0.2750000000
0.2850000000
0.2950000000
0.2350000000
0.2050000000
0.1700000000
0.1850000000
0.2200000000
0.2650000000
0.3000000000
0.2850000000
0.2550000000
0.2450000000
0.2350000000
0.2300000000
0.2250000000
0.2250000000
0.2250000000
0.2350000000
0.2350000000
0.2350000000
0.2400000000
0.2050000000
0.1900000000
0.1850000000
0.1950000000
0.1900000000
0.1900000000
0.1850000000
0.2150000000
0.2250000000
0.2250000000
0.2250000000
0.2200000000
0.2150000000
0.2150000000
0.1950000000
0.1750000000
0.1750000000
0.1800000000
0.1700000000
0.1600000000
0.2050000000
0.2400000000
0.2600000000
0.2300000000
0.2100000000
0.1900000000
0.1750000000
0.1600000000
0.1550000000
0.1700000000
0.1600000000
0.1400000000
0.1200000000
0.1550000000
0.1850000000
0.2050000000
0.1750000000
0.1550000000
0.1350000000
0.1250000000
0.1700000000
0.2050000000
0.2300000000
0.2000000000
0.1850000000
0.1750000000
0.1550000000
0.1500000000
0.1500000000
0.1250000000
0.1250000000
0.1300000000
0.1300000000
0.0900000000
0.0600000000
0.0400000000
0.0950000000
0.1050000000
0.0850000000
0.0800000000
0.1150000000
0.1600000000
0.1750000000
0.1750000000
0.1500000000
0.1100000000
0.1050000000
0.1150000000
0.1500000000
0.1500000000
0.1600000000
0.1700000000
0.1500000000
0.0950000000
0.0550000000
0.0500000000
0.0650000000
0.0800000000
0.0750000000
0.0600000000
0.0800000000
0.1300000000
0.1700000000
0.1750000000
0.1650000000
0.1500000000
0.1300000000
0.0900000000
0.1150000000
0.0950000000
0.1350000000
0.1500000000
0.1050000000
0.0850000000
0.0850000000
0.0650000000
0.0600000000
0.0750000000
0.1000000000
0.1100000000
0.0900000000
0.0250000000
0.0150000000
0.0600000000
0.1350000000
0.0950000000
0.0700000000
0.0650000000
0.1050000000
0.1100000000
0.0750000000
0.0150000000
0.0150000000
0.0350000000
0.0750000000
0.0750000000
0.0700000000
0.0750000000
0.0750000000
0.0650000000
0.0500000000
0.0450000000
0.0950000000
0.1300000000
0.1300000000
0.0550000000
0.0250000000
0.0400000000
0.0850000000
0.0850000000
0.0600000000
0.0550000000
0.0650000000
0.0650000000
0.0250000000
0.0200000000
0.0400000000
0.0750000000
0.0500000000
0.0300000000
0.0100000000
0.0600000000
0.0900000000
0.1000000000
0.0650000000
0.0550000000
0.0450000000
0.0350000000
0.0500000000
0.0600000000
0.0600000000
0.1050000000
0.1050000000
0.0850000000
0.0600000000
0.0600000000
0.0750000000
0.0900000000
0.0850000000
0.0550000000
0.0750000000
0.0350000000
0.0450000000
0.0350000000
0.0350000000
0.0350000000
0.0300000000
0.0400000000
0.0600000000
0.0800000000
0.0850000000
0.0700000000
0.0550000000
0.0450000000
0.0700000000
0.0750000000
0.0550000000
0.0250000000
0.0250000000
0.0350000000
0.0550000000
0.0650000000
0.0650000000
0.0450000000
0.0200000000
0.0350000000
0.0900000000
0.1000000000
0.0800000000
0.0450000000
0.0450000000
0.0550000000
0.0800000000
0.1150000000
0.1000000000
0.0800000000
0.0800000000
0.0550000000
0.0550000000
0.0850000000
0.0850000000
0.0850000000
0.0900000000
0.0700000000
0.0750000000
0.0900000000
0.1000000000
0.1000000000
0.0900000000
0.0850000000
0.0950000000
0.1000000000
0.1000000000
0.0850000000
0.0750000000
0.0650000000
0.0450000000
0.0700000000
0.1000000000
0.1150000000
0.1000000000
0.1000000000
0.1450000000
0.1250000000
0.1150000000
0.1150000000
0.1300000000
0.1200000000
0.1050000000
0.1050000000
0.1050000000
0.1050000000
0.1150000000
0.0950000000
0.1150000000
0.1350000000
0.1200000000
0.1050000000
0.0900000000
0.0700000000
0.0550000000
0.0550000000
0.0900000000
0.1000000000
0.1250000000
0.1650000000
0.1600000000
0.1450000000
0.1200000000
0.1100000000
0.1050000000
0.1000000000
0.0700000000
0.0750000000
0.0900000000
0.0950000000
0.0600000000
0.0500000000
0.0750000000
0.1300000000
0.1450000000
0.1300000000
0.1050000000
0.0950000000
0.1000000000
0.1000000000
0.0750000000
0.0550000000
0.0600000000
0.0050000000
0.0050000000
0.0400000000
0.1200000000
0.1500000000
0.1400000000
0.1000000000
0.0850000000
0.0700000000
0.0450000000
0.0350000000
0.0600000000
0.1200000000
0.1200000000
0.0850000000
0.0200000000
0.0500000000
0.0900000000
0.1100000000
0.0500000000
0.0300000000
0.0200000000
0.0150000000
0.0350000000
0.0650000000
0.1050000000
0.0550000000
0.0550000000
0.0800000000
0.0800000000
0.0600000000
0.0350000000
0.0350000000
0.0150000000
-0.0150000000
0.0000000000
0.0200000000
0.0750000000
0.1050000000
0.0600000000
0.0350000000
0.0200000000
0.0450000000
0.0450000000
0.0200000000
-0.0450000000
-0.0400000000
-0.0150000000
0.0150000000
-0.0050000000
-0.0050000000
0.0150000000
0.0150000000
0.0050000000
0.0000000000
0.0350000000
0.0600000000
0.0700000000
0.0600000000
0.0400000000
0.0300000000
0.0350000000
0.0350000000
0.0450000000
0.0600000000
0.0600000000
0.0450000000
0.0300000000
0.0150000000
-0.0100000000
-0.0400000000
-0.0300000000
-0.0550000000
-0.0400000000
-0.0250000000
-0.0100000000
0.0000000000
-0.0050000000
-0.0050000000
0.0200000000
0.0350000000
0.0250000000
0.0200000000
0.0300000000
0.0600000000
0.0150000000
0.0050000000
0.0200000000
0.0200000000
0.0000000000
-0.0150000000
-0.0150000000
-0.0350000000
-0.0550000000
-0.0500000000
-0.0250000000
0.0150000000
0.0600000000
0.0750000000
0.0600000000
0.0200000000
-0.0050000000
0.0000000000
0.0150000000
-0.0150000000
-0.0600000000
-0.0650000000
-0.0900000000
0.0300000000
0.0200000000
-0.0250000000
-0.0250000000
-0.0250000000
-0.0300000000
0.0100000000
0.0150000000
0.0100000000
0.0150000000
0.0200000000
0.0000000000
-0.0300000000
-0.0300000000
-0.0200000000
-0.0050000000
-0.0050000000
-0.0100000000
-0.0150000000
-0.0600000000
-0.0700000000
-0.0600000000
-0.0250000000
-0.0100000000
0.0000000000
-0.0100000000
-0.0100000000
-0.0100000000
-0.0250000000
-0.0300000000
-0.0200000000
-0.0100000000
-0.0450000000
-0.0450000000
-0.0250000000
-0.0400000000
0.0150000000
0.0050000000
-0.0100000000
-0.0100000000
-0.0100000000
-0.0200000000
-0.0250000000
-0.0650000000
-0.0800000000
-0.0350000000
-0.0250000000
-0.0250000000
-0.0350000000
0.0100000000
0.0150000000
-0.0150000000
-0.0400000000
-0.0300000000
-0.0050000000
0.0050000000
0.0050000000
0.0000000000
0.0000000000
0.0000000000
-0.0100000000
-0.0200000000
-0.0200000000
-0.0250000000
-0.0200000000
-0.0300000000
-0.0300000000
-0.0200000000
0.0000000000
-0.0100000000
-0.0300000000
-0.0250000000
-0.0200000000
0.0100000000
0.0450000000
0.0300000000
0.0100000000
-0.0100000000
-0.0250000000
-0.0150000000
-0.0050000000
-0.0400000000
-0.0100000000
0.0150000000
0.0250000000
0.0250000000
0.0000000000
-0.0350000000
-0.0600000000
-0.0450000000
-0.0100000000
0.0150000000
0.0150000000
-0.0100000000
-0.0500000000
-0.0550000000
-0.0150000000
0.0650000000
0.0650000000
0.0350000000
0.0000000000
0.0300000000
0.0350000000
0.0200000000
-0.0050000000
-0.0100000000
-0.0100000000
-0.0050000000
-0.0250000000
-0.0350000000
-0.0700000000
-0.0600000000
-0.0200000000
0.0250000000
0.0600000000
0.0550000000
0.0350000000
0.0250000000
0.0100000000
0.0200000000
0.0700000000
0.0500000000
0.0100000000
-0.0250000000
-0.0300000000
-0.0200000000
-0.0050000000
0.0050000000
0.0100000000
0.0000000000
-0.0350000000
-0.0450000000
-0.0300000000
0.0150000000
0.0250000000
0.0300000000
0.0350000000
0.0000000000
-0.0200000000
-0.0200000000
0.0250000000
0.0200000000
-0.0050000000
0.0100000000
-0.0650000000
-0.0650000000
-0.0400000000
-0.0050000000
0.0100000000
0.0100000000
-0.0050000000
0.0150000000
0.0300000000
0.0100000000
-0.0300000000
-0.0500000000
-0.0500000000
-0.0250000000
-0.0100000000
-0.0150000000
0.0000000000
-0.0050000000
-0.0200000000
-0.0200000000
-0.0200000000
-0.0300000000
-0.0300000000
-0.0300000000
-0.0150000000
0.0100000000
0.0100000000
-0.0050000000
-0.0400000000
-0.0500000000
-0.0550000000
-0.0600000000
-0.0600000000
0.0000000000
0.0350000000
0.0350000000
-0.0100000000
-0.0550000000
-0.0950000000
-0.0700000000
-0.0150000000
0.0400000000
0.0000000000
-0.0250000000
-0.0400000000
-0.0450000000
-0.0500000000
-0.0400000000
-0.0100000000
-0.0100000000
-0.0300000000
-0.0650000000
-0.0450000000
-0.0400000000
-0.0500000000
-0.0750000000
-0.0850000000
-0.0750000000
-0.0400000000
-0.0050000000
0.0000000000
-0.0350000000
-0.0250000000
-0.0300000000
-0.0500000000
-0.0250000000
-0.0050000000
-0.0050000000
-0.0600000000
-0.0700000000
-0.0600000000
-0.0700000000
-0.0300000000
-0.0600000000
-0.1150000000
-0.0500000000
-0.0100000000
0.0050000000
-0.0450000000
-0.0700000000
-0.0800000000
-0.0650000000
-0.0350000000
-0.0150000000
0.0000000000
-0.0650000000
-0.1050000000
-0.1300000000
-0.1000000000
-0.0750000000
-0.0550000000
-0.0700000000
-0.0850000000
-0.0950000000
-0.0950000000
-0.0850000000
-0.0650000000
-0.0450000000
-0.0400000000
-0.0550000000
-0.0900000000
-0.1250000000
-0.1000000000
-0.0650000000
-0.0550000000
-0.0650000000
-0.0850000000
-0.0800000000
-0.0950000000
-0.0850000000
-0.0800000000
-0.1450000000
-0.1450000000
-0.1050000000
-0.0800000000
-0.0750000000
-0.0900000000
-0.1250000000
-0.1050000000
-0.0850000000
-0.0750000000
-0.1000000000
-0.1100000000
-0.0950000000
-0.0750000000
-0.1050000000
-0.1500000000
-0.1400000000
-0.1050000000
-0.0800000000
-0.0800000000
-0.1100000000
-0.1250000000
-0.1350000000
-0.1400000000
-0.1450000000
-0.1350000000
-0.1300000000
-0.1250000000
-0.1200000000
-0.1200000000
-0.1250000000
-0.1250000000
-0.1250000000
-0.1150000000
-0.1000000000
-0.0750000000
-0.0700000000
-0.0800000000
-0.1000000000
-0.1100000000
-0.1250000000
-0.1350000000
-0.1350000000
-0.1400000000
-0.1400000000
-0.1100000000
-0.1200000000
-0.1300000000
-0.1200000000
-0.1200000000
-0.1150000000
-0.1050000000
-0.0700000000
-0.1050000000
-0.1450000000
-0.1700000000
-0.1400000000
-0.1100000000
-0.0800000000
-0.0900000000
-0.0850000000
-0.0700000000
-0.1000000000
-0.1200000000
-0.1250000000
-0.0950000000
-0.0600000000
-0.0400000000
-0.0350000000
-0.0750000000
-0.1050000000
-0.1450000000
-0.1100000000
-0.0750000000
-0.0500000000
-0.0700000000
-0.0800000000
-0.0850000000
-0.0900000000
-0.1000000000
-0.1000000000
-0.0900000000
-0.0750000000
-0.0750000000
-0.1000000000
-0.0750000000
-0.0750000000
-0.0800000000
-0.0600000000
-0.0700000000
-0.0700000000
-0.0350000000
-0.0300000000
-0.0450000000
-0.0800000000
-0.1050000000
-0.1150000000
-0.1100000000
-0.0450000000
-0.0400000000
-0.0650000000
-0.1000000000
-0.1000000000
-0.0850000000
-0.0900000000
-0.0600000000
-0.0750000000
-0.0950000000
-0.1300000000
-0.1350000000
-0.1200000000
-0.1150000000
-0.0800000000
-0.0600000000
-0.0700000000
-0.0700000000
-0.0600000000
-0.0600000000
-0.0750000000
-0.1000000000
-0.1150000000
-0.0550000000
-0.0500000000
-0.0750000000
-0.1100000000
-0.0950000000
-0.0750000000
-0.0750000000
-0.0850000000
-0.1000000000
-0.1250000000
-0.1250000000
-0.1000000000
-0.0750000000
-0.1000000000
-0.1000000000
-0.0950000000
-0.1100000000
-0.1150000000
-0.1100000000
-0.1200000000
-0.0750000000
-0.0750000000
-0.1000000000
-0.1400000000
-0.1350000000
-0.1000000000
-0.0750000000
-0.0800000000
-0.0900000000
-0.0800000000
-0.0750000000
-0.0750000000
-0.0900000000
-0.1200000000
-0.1400000000
-0.1550000000
-0.1550000000
-0.1250000000
-0.0850000000
-0.0600000000
-0.1000000000
-0.1400000000
-0.1300000000
-0.1150000000
-0.0900000000
-0.0550000000
-0.0500000000
-0.0550000000
-0.0700000000
-0.0950000000
-0.1150000000
-0.1200000000
-0.1050000000
-0.0900000000
-0.0900000000
-0.0800000000
-0.1150000000
-0.1100000000
-0.1200000000
-0.1000000000
-0.0900000000
-0.0900000000
-0.0900000000
-0.0900000000
-0.0950000000
-0.1000000000
-0.1200000000
-0.1300000000
-0.1250000000
-0.0950000000
-0.0900000000
-0.1100000000
-0.1050000000
-0.1000000000
-0.1050000000
-0.1050000000
-0.1250000000
-0.1350000000
-0.1250000000
-0.1200000000
-0.1050000000
-0.0800000000
-0.1100000000
-0.1350000000
-0.1550000000
-0.1300000000
-0.1300000000
-0.1450000000
-0.1750000000
-0.1400000000
-0.1050000000
-0.1050000000
-0.1250000000
-0.1400000000
-0.1450000000
-0.1600000000
-0.1400000000
-0.0950000000
-0.0500000000
-0.0750000000
-0.1200000000
-0.1450000000
-0.1750000000
-0.1800000000
-0.1500000000
-0.1300000000
-0.1200000000
-0.1100000000
-0.1350000000
-0.1300000000
-0.1150000000
-0.0950000000
-0.1000000000
-0.1250000000
-0.1500000000
-0.1650000000
-0.1700000000
-0.1600000000
-0.1450000000
-0.1350000000
-0.1350000000
-0.1300000000
-0.1200000000
-0.1250000000
-0.1700000000
-0.1800000000
-0.1800000000
-0.1900000000
-0.1650000000
-0.1600000000
-0.1250000000
-0.0950000000
-0.1050000000
-0.1350000000
-0.1600000000
-0.1750000000
-0.1800000000
-0.1600000000
-0.1450000000
-0.1400000000
-0.1500000000
-0.1700000000
-0.1800000000
-0.1800000000
-0.1300000000
-0.1200000000
-0.1350000000
-0.1900000000
-0.2050000000
-0.2000000000
-0.1550000000
-0.1400000000
-0.1400000000
-0.1500000000
-0.1500000000
-0.1450000000
-0.1450000000
-0.1700000000
-0.1800000000
-0.1800000000
-0.1650000000
-0.1400000000
-0.1350000000
-0.1250000000
-0.2000000000
-0.2200000000
-0.2050000000
-0.1650000000
-0.1450000000
-0.1350000000
-0.1400000000
-0.1650000000
-0.1900000000
-0.2000000000
-0.1650000000
-0.1350000000
-0.1450000000
-0.1600000000
-0.1800000000
-0.2050000000
-0.2000000000
-0.1800000000
-0.1650000000
-0.1650000000
-0.1700000000
-0.1850000000
-0.1750000000
-0.1600000000
-0.1500000000
-0.1500000000
-0.1600000000
-0.1650000000
-0.1600000000
-0.1400000000
-0.1400000000
-0.1600000000
-0.1750000000
-0.1750000000
-0.1700000000
-0.1700000000
-0.1750000000
-0.1800000000
-0.1900000000
-0.2000000000
-0.1950000000
-0.1800000000
-0.1750000000
-0.1450000000
-0.1350000000
-0.1700000000
-0.1800000000
-0.1800000000
-0.1650000000
-0.1800000000
-0.1900000000
-0.1850000000
-0.1800000000
-0.1550000000
-0.1350000000
-0.1350000000
-0.1300000000
-0.1450000000
-0.1800000000
-0.1850000000
-0.1850000000
-0.1750000000
-0.1450000000
-0.1500000000
-0.1700000000
-0.1900000000
-0.2100000000
-0.2300000000
-0.2150000000
-0.1900000000
-0.1750000000
-0.1750000000
-0.1650000000
-0.1600000000
-0.1450000000
-0.1350000000
-0.1450000000
-0.1700000000
-0.1700000000
-0.1800000000
-0.1950000000
-0.1850000000
-0.1850000000
-0.1950000000
-0.2050000000
-0.2100000000
-0.1950000000
-0.1600000000
-0.1450000000
-0.1700000000
-0.2050000000
-0.2200000000
-0.2050000000
-0.1800000000
-0.1600000000
-0.1650000000
-0.1700000000
-0.1600000000
-0.1700000000
-0.1650000000
-0.1450000000
-0.1650000000
-0.1850000000
-0.2050000000
-0.2050000000
-0.2000000000
-0.1950000000
-0.1950000000
-0.2100000000
-0.2050000000
-0.1850000000
-0.1850000000
-0.1900000000
-0.1850000000
-0.1850000000
-0.1800000000
-0.1700000000
-0.1800000000
-0.1850000000
-0.1800000000
-0.1750000000
-0.1750000000
-0.1800000000
-0.1700000000
-0.1750000000
-0.1800000000
-0.1800000000
-0.1750000000
-0.2100000000
-0.2450000000
-0.2550000000
-0.2300000000
-0.2050000000
-0.1800000000
-0.1850000000
-0.1900000000
-0.2000000000
-0.1950000000
-0.1850000000
-0.1800000000
-0.1650000000
-0.1900000000
-0.2100000000
-0.2100000000
-0.2150000000
-0.2200000000
-0.2150000000
-0.2050000000
-0.2000000000
-0.2000000000
-0.2100000000
-0.2200000000
-0.2150000000
-0.1800000000
-0.1900000000
-0.2000000000
-0.2000000000
-0.2000000000
-0.2000000000
-0.2100000000
-0.2100000000
-0.1800000000
-0.1500000000
-0.1500000000
-0.1800000000
-0.2200000000
-0.2550000000
-0.2600000000
-0.2500000000
-0.2200000000
-0.2150000000
-0.2100000000
-0.2150000000
-0.2350000000
-0.2400000000
-0.2300000000
-0.2000000000
-0.1900000000
-0.1850000000
-0.1800000000
-0.2050000000
-0.2050000000
-0.2050000000
-0.2100000000
-0.2150000000
-0.2100000000
-0.2150000000
-0.2200000000
-0.2150000000
-0.2150000000
-0.2200000000
-0.2250000000
-0.2150000000
-0.2050000000
-0.2100000000
-0.2350000000
-0.2500000000
-0.2400000000
-0.2250000000
-0.2200000000
-0.2300000000
-0.2450000000
-0.2450000000
-0.2400000000
-0.2400000000
-0.2400000000
-0.2300000000
-0.2250000000
-0.2300000000
-0.2450000000
-0.2500000000
-0.2550000000
-0.2550000000
-0.2550000000
-0.2650000000
-0.2650000000
-0.2250000000
-0.2250000000
-0.2600000000
-0.2800000000
-0.2900000000
-0.2700000000
-0.2100000000
-0.2150000000
-0.2400000000
-0.2650000000
-0.2950000000
-0.2950000000
-0.2500000000
-0.2400000000
-0.2350000000
-0.2450000000
-0.2750000000
-0.2850000000
-0.2850000000
-0.2650000000
-0.2650000000
-0.2750000000
-0.2750000000
-0.2900000000
-0.2950000000
-0.2750000000
-0.2600000000
-0.2500000000
-0.2400000000
-0.2400000000
-0.2600000000
-0.2750000000
-0.2750000000
-0.2800000000
-0.2800000000
-0.2850000000
-0.2450000000
-0.2450000000
-0.2650000000
-0.2950000000
-0.3000000000
-0.2850000000
-0.2700000000
-0.2600000000
-0.2550000000
-0.2550000000
-0.2350000000
-0.2350000000
-0.2750000000
-0.2750000000
-0.2700000000
-0.2550000000
-0.2550000000
-0.2600000000
-0.2550000000
-0.2600000000
-0.2500000000
-0.2350000000
-0.2350000000
-0.2400000000
-0.2650000000
-0.2950000000
-0.3300000000
-0.3200000000
-0.2800000000
-0.2350000000
-0.2350000000
-0.2550000000
-0.2450000000
-0.2450000000
-0.2550000000
-0.2550000000
-0.2900000000
-0.2950000000
-0.2850000000
-0.2500000000
-0.2350000000
-0.2300000000
-0.2600000000
-0.2800000000
-0.2800000000
